0.1904296875
0.26953125
0.19921875
0.10546875
-0.046875
-0.1201171875
-0.240234375
-0.3076171875
-0.3310546875
-0.3046875
-0.322265625
-0.3017578125
-0.2255859375
-0.2138671875
-0.2109375
-0.1435546875
-0.1376953125
-0.0732421875
-0.0498046875
-0.0908203125
-0.0439453125
-0.0703125
-0.064453125
-0.0263671875
-0.0087890625
-0.0380859375
-0.0263671875
-0.08203125
-0.005859375
-0.0146484375
0.0146484375
-0.005859375
-0.0087890625
0.041015625
-0.0234375
0.052734375
0.0966796875
0.0908203125
0.0703125
0.0556640625
-0.005859375
-0.03515625
-0.0556640625
-0.0263671875
-0.05859375
-0.005859375
-0.0146484375
-0.076171875
0
-0.064453125
0.1552734375
0.7529296875
1.2509765625
0.5126953125
-0.0966796875
-0.2666015625
-0.2841796875
-0.2578125
-0.22265625
-0.2197265625
-0.1669921875
-0.1904296875
-0.1318359375
-0.140625
-0.1142578125
-0.0732421875
-0.0615234375
-0.05859375
0.0380859375
-0.005859375
0.0263671875
0.0673828125
0.08203125
0.12890625
0.1640625
0.205078125
0.2109375
0.234375
0.205078125
0.1962890625
0.0791015625
-0.01171875
-0.1259765625
-0.24609375
-0.24609375
-0.2841796875
-0.3193359375
-0.263671875
-0.2490234375
-0.240234375
-0.17578125
-0.15234375
-0.140625
-0.1083984375
-0.10546875
-0.1025390625
-0.087890625
-0.0966796875
-0.0849609375
-0.08203125
-0.0908203125
-0.0703125
-0.076171875
-0.076171875
-0.10546875
-0.0703125
-0.0498046875
-0.1025390625
-0.041015625
-0.05859375
-0.0673828125
-0.0322265625
0.046875
0.0615234375
0.0439453125
-0.0205078125
-0.064453125
-0.111328125
-0.09375
-0.10546875
-0.1142578125
-0.087890625
-0.0849609375
-0.0732421875
-0.064453125
-0.099609375
-0.08203125
0.4306640625
1.0986328125
0.8291015625
0.005859375
-0.26953125
-0.2724609375
-0.2431640625
-0.2138671875
-0.2255859375
-0.181640625
-0.193359375
-0.15234375
-0.1435546875
-0.0908203125
-0.0849609375
-0.0615234375
-0.0439453125
-0.0029296875
-0.0498046875
-0.029296875
0.046875
0.0703125
0.09375
0.12890625
0.1640625
0.205078125
0.1845703125
0.2021484375
0.1640625
0.10546875
0.01171875
-0.1171875
-0.2109375
-0.251953125
-0.275390625
-0.287109375
-0.2841796875
-0.2578125
-0.2373046875
-0.2138671875
-0.17578125
-0.1669921875
-0.1025390625
-0.1025390625
-0.0908203125
-0.05859375
-0.0498046875
-0.0439453125
-0.0439453125
-0.0498046875
-0.0380859375
-0.0439453125
-0.0322265625
-0.0263671875
-0.052734375
-0.0234375
-0.0087890625
-0.0029296875
-0.017578125
0.0087890625
0.0087890625
0.0732421875
0.1142578125
0.0673828125
0.0205078125
-0.0234375
-0.0439453125
-0.0849609375
-0.08203125
-0.08203125
-0.0556640625
-0.0498046875
-0.041015625
-0.029296875
-0.041015625
-0.0908203125
0.2958984375
0.919921875
1.0341796875
0.1875
-0.1611328125
-0.234375
-0.1904296875
-0.169921875
-0.1669921875
-0.146484375
-0.1376953125
-0.111328125
-0.09375
-0.0615234375
-0.046875
-0.0380859375
-0.0234375
-0.01171875
0.017578125
0.017578125
0.0439453125
0.0791015625
0.0908203125
0.15234375
0.1728515625
0.22265625
0.234375
0.2548828125
0.2314453125
0.1787109375
0.0791015625
-0.05859375
-0.1728515625
-0.240234375
-0.26953125
-0.2783203125
-0.275390625
-0.2431640625
-0.2373046875
-0.1962890625
-0.158203125
-0.1318359375
-0.09375
-0.09375
-0.0615234375
-0.064453125
-0.041015625
-0.029296875
-0.0322265625
-0.0234375
-0.0498046875
-0.0322265625
-0.029296875
-0.0205078125
-0.03515625
-0.0263671875
-0.0234375
-0.01171875
-0.0263671875
0
-0.0087890625
0.052734375
0.0849609375
0.0673828125
0.017578125
-0.0263671875
-0.0498046875
-0.076171875
-0.09375
-0.064453125
-0.0673828125
-0.0498046875
-0.0380859375
-0.0146484375
-0.052734375
-0.08203125
0.3193359375
0.966796875
0.9931640625
0.1376953125
-0.1552734375
-0.2431640625
-0.205078125
-0.1962890625
-0.1962890625
-0.1875
-0.1435546875
-0.1318359375
-0.1171875
-0.0966796875
-0.09375
-0.05859375
-0.041015625
-0.017578125
-0.0205078125
0.005859375
0.046875
0.0556640625
0.0908203125
0.123046875
0.17578125
0.1845703125
0.2109375
0.2109375
0.19921875
0.1494140625
0.05859375
-0.064453125
-0.1904296875
-0.2548828125
-0.29296875
-0.3046875
-0.2900390625
-0.26953125
-0.2607421875
-0.2109375
-0.1787109375
-0.1494140625
-0.10546875
-0.0908203125
-0.09375
-0.0703125
-0.064453125
-0.052734375
-0.0439453125
-0.0380859375
-0.0263671875
-0.0439453125
-0.0234375
-0.0322265625
-0.0234375
-0.0205078125
-0.005859375
-0.0087890625
0.05859375
0.099609375
0.1025390625
0.052734375
0.0087890625
-0.0322265625
-0.046875
-0.064453125
-0.041015625
-0.0263671875
-0.0322265625
-0.0234375
-0.0029296875
0
-0.099609375
0.2080078125
0.849609375
1.25390625
0.451171875
-0.076171875
-0.2666015625
-0.263671875
-0.2255859375
-0.193359375
-0.1845703125
-0.15234375
-0.12890625
-0.123046875
-0.0849609375
-0.0703125
-0.046875
-0.0322265625
-0.0146484375
0.0205078125
0.0146484375
0.03515625
0.0703125
0.08203125
0.12890625
0.1611328125
0.1669921875
0.19921875
0.22265625
0.2109375
0.1640625
0.0615234375
-0.052734375
-0.1552734375
-0.2314453125
-0.2548828125
-0.2841796875
-0.2724609375
-0.2607421875
-0.22265625
-0.1904296875
-0.15234375
-0.1376953125
-0.1142578125
-0.0908203125
-0.064453125
-0.076171875
-0.0615234375
-0.041015625
-0.046875
-0.041015625
-0.046875
-0.0439453125
-0.0439453125
-0.0439453125
-0.041015625
-0.03515625
-0.03515625
0
0.03515625
0.087890625
0.05859375
0.0029296875
-0.03515625
-0.087890625
-0.111328125
-0.0966796875
-0.0908203125
-0.0908203125
-0.0703125
-0.052734375
-0.0439453125
-0.0732421875
-0.099609375
0.3544921875
1.0341796875
1.0107421875
0.099609375
-0.205078125
-0.2783203125
-0.2431640625
-0.2255859375
-0.2255859375
-0.193359375
-0.1669921875
-0.15234375
-0.1318359375
-0.1025390625
-0.0849609375
-0.0673828125
-0.046875
-0.0087890625
-0.0029296875
0.0205078125
0.0439453125
0.0703125
0.10546875
0.1318359375
0.1640625
0.19921875
0.228515625
0.22265625
0.1904296875
0.140625
0.03515625
-0.087890625
-0.1875
-0.2490234375
-0.275390625
-0.2666015625
-0.2724609375
-0.2607421875
-0.234375
-0.19921875
-0.169921875
-0.1376953125
-0.1201171875
-0.09375
-0.0908203125
-0.0732421875
-0.0673828125
-0.064453125
-0.0556640625
-0.064453125
-0.052734375
-0.0322265625
-0.05859375
-0.03515625
-0.041015625
-0.029296875
-0.0234375
-0.0029296875
0.052734375
0.0908203125
0.08203125
0.0205078125
-0.029296875
-0.0703125
-0.09375
-0.09375
-0.076171875
-0.0673828125
-0.052734375
-0.041015625
-0.029296875
-0.0380859375
-0.10546875
0.22265625
0.814453125
1.1484375
0.3369140625
-0.1201171875
-0.2431640625
-0.2109375
-0.19921875
-0.1904296875
-0.1640625
-0.146484375
-0.1259765625
-0.1201171875
-0.09375
-0.0673828125
-0.046875
-0.0322265625
-0.0205078125
0
0.0322265625
0.0498046875
0.0791015625
0.1025390625
0.1435546875
0.17578125
0.2138671875
0.234375
0.2314453125
0.2138671875
0.1640625
0.0673828125
-0.052734375
-0.1611328125
-0.2373046875
-0.28125
-0.287109375
-0.2841796875
-0.2607421875
-0.234375
-0.205078125
-0.1728515625
-0.15234375
-0.123046875
-0.10546875
-0.0849609375
-0.076171875
-0.0703125
-0.05859375
-0.0498046875
-0.0439453125
-0.0439453125
-0.0380859375
-0.0439453125
-0.03515625
-0.041015625
-0.029296875
-0.0234375
0.03515625
0.064453125
0.09375
0.064453125
0
-0.0234375
-0.0732421875
-0.09375
-0.0732421875
-0.0732421875
-0.05859375
-0.041015625
-0.0322265625
-0.0263671875
-0.0703125
-0.0673828125
0.4072265625
1.0546875
0.9345703125
0.0791015625
-0.216796875
-0.2490234375
-0.2138671875
-0.2021484375
-0.193359375
-0.1640625
-0.1435546875
-0.1142578125
-0.1025390625
-0.08203125
-0.052734375
-0.041015625
-0.0146484375
0
0.0234375
0.041015625
0.0703125
0.0908203125
0.1318359375
0.158203125
0.193359375
0.2314453125
0.234375
0.240234375
0.205078125
0.1435546875
0.0234375
-0.0966796875
-0.181640625
-0.24609375
-0.2783203125
-0.2783203125
-0.2607421875
-0.251953125
-0.2197265625
-0.1728515625
-0.1552734375
-0.1376953125
-0.1171875
-0.0908203125
-0.08203125
-0.0732421875
-0.05859375
-0.052734375
-0.052734375
-0.0498046875
-0.0380859375
-0.0380859375
-0.029296875
-0.0263671875
-0.01171875
0.0556640625
0.0908203125
0.0791015625
0.03515625
-0.0146484375
-0.052734375
-0.0791015625
-0.0703125
-0.0791015625
-0.0615234375
-0.0498046875
-0.0439453125
-0.0322265625
-0.0234375
-0.1083984375
0.1962890625
0.8232421875
1.171875
0.375
-0.0849609375
-0.263671875
-0.2373046875
-0.2080078125
-0.1962890625
-0.1875
-0.1669921875
-0.146484375
-0.1171875
-0.0966796875
-0.076171875
-0.0673828125
-0.041015625
-0.0146484375
0.0029296875
0.0205078125
0.041015625
0.0615234375
0.0908203125
0.1201171875
0.1552734375
0.181640625
0.1962890625
0.2080078125
0.181640625
0.140625
0.046875
-0.0703125
-0.1669921875
-0.2314453125
-0.263671875
-0.275390625
-0.263671875
-0.240234375
-0.2138671875
-0.1875
-0.1611328125
-0.1376953125
-0.1171875
-0.099609375
-0.0791015625
-0.0732421875
-0.0703125
-0.064453125
-0.05859375
-0.064453125
-0.05859375
-0.052734375
-0.0556640625
-0.0498046875
-0.041015625
-0.0322265625
0.0205078125
0.052734375
0.0908203125
0.05859375
0.0029296875
-0.029296875
-0.08203125
-0.1025390625
-0.09375
-0.08203125
-0.076171875
-0.0673828125
-0.0556640625
-0.041015625
-0.0849609375
-0.076171875
0.404296875
1.0576171875
0.896484375
0.046875
-0.2255859375
-0.240234375
-0.2109375
-0.205078125
-0.193359375
-0.169921875
-0.1435546875
-0.1259765625
-0.099609375
-0.087890625
-0.05859375
-0.0439453125
-0.0234375
-0.0029296875
0.0205078125
0.041015625
0.0673828125
0.0908203125
0.123046875
0.1640625
0.1904296875
0.2080078125
0.22265625
0.2197265625
0.1845703125
0.1142578125
0.0029296875
-0.1083984375
-0.1875
-0.240234375
-0.26953125
-0.26953125
-0.251953125
-0.2314453125
-0.1962890625
-0.1669921875
-0.1435546875
-0.123046875
-0.1025390625
-0.087890625
-0.076171875
-0.0673828125
-0.0673828125
-0.0615234375
-0.0556640625
-0.052734375
-0.0498046875
-0.0498046875
-0.0498046875
-0.046875
-0.029296875
-0.029296875
0.041015625
0.0703125
0.0908203125
0.0498046875
-0.0087890625
-0.0439453125
-0.08203125
-0.087890625
-0.0703125
-0.0732421875
-0.0673828125
-0.052734375
-0.0380859375
-0.0322265625
-0.1025390625
0.0205078125
0.5712890625
1.166015625
0.6796875
-0.03515625
-0.2607421875
-0.2255859375
-0.2138671875
-0.2080078125
-0.1904296875
-0.1640625
-0.134765625
-0.1083984375
-0.1025390625
-0.0615234375
-0.0556640625
-0.0234375
-0.0087890625
0.029296875
0.0439453125
0.076171875
0.1201171875
0.1494140625
0.1962890625
0.2373046875
0.26953125
0.2958984375
0.3076171875
0.3134765625
0.2724609375
0.17578125
0.046875
-0.041015625
-0.12890625
-0.1787109375
-0.1875
-0.1875
-0.1875
-0.158203125
-0.1376953125
-0.10546875
-0.09375
-0.076171875
-0.0732421875
-0.076171875
-0.0673828125
-0.0439453125
-0.0673828125
-0.0703125
-0.0556640625
-0.0615234375
-0.0380859375
-0.0791015625
-0.08203125
-0.064453125
-0.0498046875
-0.0791015625
-0.0439453125
-0.029296875
0.017578125
0.0556640625
0.05859375
0.01171875
-0.0498046875
-0.0673828125
-0.1142578125
-0.1083984375
-0.099609375
-0.09375
-0.099609375
-0.0849609375
-0.08203125
-0.0703125
-0.1728515625
0.123046875
0.7587890625
1.1015625
0.2900390625
-0.15234375
-0.2841796875
-0.2607421875
-0.2548828125
-0.24609375
-0.228515625
-0.2109375
-0.1875
-0.1669921875
-0.15234375
-0.12890625
-0.1142578125
-0.0908203125
-0.0703125
-0.0498046875
-0.03515625
-0.0146484375
0.017578125
0.052734375
0.0849609375
0.123046875
0.1435546875
0.1640625
0.181640625
0.1640625
0.123046875
0.03515625
-0.0732421875
-0.1669921875
-0.2431640625
-0.2783203125
-0.28125
-0.2607421875
-0.240234375
-0.205078125
-0.169921875
-0.140625
-0.1142578125
-0.087890625
-0.0615234375
-0.0556640625
-0.05859375
-0.0673828125
-0.064453125
-0.052734375
-0.052734375
-0.05859375
-0.0556640625
-0.052734375
-0.046875
-0.0322265625
-0.0205078125
0.029296875
0.064453125
0.0966796875
0.0673828125
-0.0087890625
-0.029296875
-0.08203125
-0.099609375
-0.076171875
-0.0615234375
-0.052734375
-0.0439453125
-0.0234375
-0.005859375
-0.09375
0.0615234375
0.6357421875
1.1455078125
0.59765625
-0.0380859375
-0.2138671875
-0.2080078125
-0.17578125
-0.1640625
-0.1494140625
-0.1318359375
-0.1171875
-0.1083984375
-0.08203125
-0.08203125
-0.05859375
-0.03515625
-0.0234375
0.0029296875
0.029296875
0.041015625
0.0556640625
0.0908203125
0.1142578125
0.1376953125
0.1640625
0.1845703125
0.1962890625
0.1728515625
0.140625
0.052734375
-0.0498046875
-0.1435546875
-0.228515625
-0.2548828125
-0.2783203125
-0.263671875
-0.2548828125
-0.2255859375
-0.181640625
-0.1552734375
-0.1318359375
-0.1142578125
-0.0966796875
-0.0849609375
-0.0673828125
-0.076171875
-0.0703125
-0.052734375
-0.046875
-0.041015625
-0.0439453125
-0.017578125
-0.0205078125
0.0263671875
0.064453125
0.1025390625
0.0732421875
0.017578125
-0.0146484375
-0.0615234375
-0.08203125
-0.0673828125
-0.0498046875
-0.0439453125
-0.0380859375
-0.0263671875
-0.01171875
-0.076171875
0.01171875
0.55078125
1.130859375
0.6767578125
0.0029296875
-0.193359375
-0.2197265625
-0.1845703125
-0.1787109375
-0.1669921875
-0.1435546875
-0.1201171875
-0.099609375
-0.08203125
-0.0615234375
-0.0439453125
-0.0263671875
-0.01171875
0.0087890625
0.0263671875
0.041015625
0.0673828125
0.0908203125
0.1142578125
0.140625
0.158203125
0.181640625
0.1845703125
0.1728515625
0.1376953125
0.05859375
-0.046875
-0.1376953125
-0.2080078125
-0.24609375
-0.263671875
-0.2548828125
-0.234375
-0.2021484375
-0.169921875
-0.146484375
-0.1201171875
-0.10546875
-0.0966796875
-0.087890625
-0.076171875
-0.064453125
-0.0673828125
-0.064453125
-0.0703125
-0.05859375
-0.0615234375
-0.052734375
-0.052734375
-0.041015625
-0.005859375
0.0439453125
0.0908203125
0.076171875
0.005859375
-0.0380859375
-0.076171875
-0.0966796875
-0.09375
-0.08203125
-0.0732421875
-0.064453125
-0.05859375
-0.03515625
-0.08203125
-0.09375
0.36328125
1.0048828125
0.9140625
0.064453125
-0.19921875
-0.2255859375
-0.19921875
-0.193359375
-0.1787109375
-0.1611328125
-0.1376953125
-0.1171875
-0.0966796875
-0.0791015625
-0.0498046875
-0.029296875
-0.0146484375
0.0029296875
0.0205078125
0.0439453125
0.0732421875
0.0908203125
0.1259765625
0.1552734375
0.181640625
0.1962890625
0.205078125
0.1962890625
0.1669921875
0.0966796875
-0.0087890625
-0.1142578125
-0.1875
-0.2431640625
-0.2578125
-0.2548828125
-0.2373046875
-0.216796875
-0.1845703125
-0.15234375
-0.123046875
-0.10546875
-0.087890625
-0.0703125
-0.0673828125
-0.05859375
-0.05859375
-0.05859375
-0.05859375
-0.0615234375
-0.052734375
-0.0498046875
-0.046875
-0.0380859375
-0.029296875
0.03515625
0.05859375
0.08203125
0.046875
-0.01171875
-0.046875
-0.087890625
-0.09375
-0.0849609375
-0.0732421875
-0.0615234375
-0.046875
-0.03515625
-0.0234375
-0.1201171875
0.076171875
0.65625
1.171875
0.5478515625
-0.0703125
-0.234375
-0.19921875
-0.1962890625
-0.1875
-0.1728515625
-0.146484375
-0.123046875
-0.1025390625
-0.087890625
-0.0673828125
-0.046875
-0.0263671875
-0.005859375
0.01171875
0.0322265625
0.0556640625
0.0791015625
0.1025390625
0.134765625
0.1669921875
0.1904296875
0.19921875
0.1962890625
0.1845703125
0.1318359375
0.041015625
-0.0673828125
-0.1640625
-0.228515625
-0.2607421875
-0.2607421875
-0.2548828125
-0.2314453125
-0.19921875
-0.17578125
-0.1435546875
-0.1171875
-0.0966796875
-0.08203125
-0.076171875
-0.0615234375
-0.05859375
-0.05859375
-0.0615234375
-0.0615234375
-0.05859375
-0.0498046875
-0.0556640625
-0.052734375
-0.0439453125
-0.0322265625
-0.0234375
0.005859375
0.05859375
0.08203125
0.087890625
0.0234375
-0.017578125
-0.064453125
-0.0908203125
-0.0791015625
-0.05859375
-0.0556640625
-0.046875
-0.0380859375
-0.0205078125
-0.0673828125
-0.0849609375
0.3662109375
1.0224609375
0.9345703125
0.064453125
-0.19921875
-0.22265625
-0.19921875
-0.1875
-0.1787109375
-0.158203125
-0.1376953125
-0.111328125
-0.09375
-0.0673828125
-0.0439453125
-0.0263671875
-0.005859375
0.017578125
0.0322265625
0.046875
0.0791015625
0.1025390625
0.12890625
0.1611328125
0.1904296875
0.2021484375
0.2138671875
0.205078125
0.1787109375
0.1083984375
0.0087890625
-0.099609375
-0.181640625
-0.2314453125
-0.251953125
-0.251953125
-0.2314453125
-0.2138671875
-0.181640625
-0.15234375
-0.123046875
-0.099609375
-0.0791015625
-0.064453125
-0.05859375
-0.0498046875
-0.046875
-0.0498046875
-0.046875
-0.046875
-0.041015625
-0.041015625
-0.029296875
-0.0234375
-0.0205078125
-0.017578125
-0.01171875
0
0.01171875
0.03515625
0.0908203125
0.1171875
0.1083984375
0.046875
0.0205078125
-0.0263671875
-0.052734375
-0.0380859375
-0.0263671875
-0.0205078125
-0.0087890625
0
0.01171875
-0.0556640625
-0.0146484375
0.4892578125
1.142578125
0.8759765625
0.0498046875
-0.193359375
-0.19921875
-0.17578125
-0.1640625
-0.15234375
-0.1318359375
-0.10546875
-0.076171875
-0.0615234375
-0.03515625
-0.0087890625
0.005859375
0.0263671875
0.0380859375
0.0703125
0.087890625
0.111328125
0.1259765625
0.1640625
0.1875
0.2080078125
0.228515625
0.234375
0.228515625
0.181640625
0.111328125
0
-0.09375
-0.1787109375
-0.2314453125
-0.2548828125
-0.2490234375
-0.2314453125
-0.2080078125
-0.1787109375
-0.146484375
-0.10546875
-0.099609375
-0.0732421875
-0.0673828125
-0.064453125
-0.052734375
-0.05859375
-0.0498046875
-0.0439453125
-0.0439453125
-0.0439453125
-0.0439453125
-0.03515625
-0.03515625
-0.029296875
-0.0263671875
-0.029296875
-0.029296875
-0.0146484375
-0.005859375
0.05859375
0.0908203125
0.0849609375
0.0263671875
-0.005859375
-0.0380859375
-0.0791015625
-0.08203125
-0.064453125
-0.0615234375
-0.052734375
-0.0439453125
-0.0263671875
-0.046875
-0.09375
0.3193359375
0.9755859375
0.955078125
0.10546875
-0.158203125
-0.2548828125
-0.216796875
-0.2080078125
-0.1875
-0.1787109375
-0.1611328125
-0.1318359375
-0.1171875
-0.0966796875
-0.0732421875
-0.05859375
-0.03515625
-0.0205078125
-0.0087890625
0.0087890625
0.0380859375
0.05859375
0.09375
0.1142578125
0.1435546875
0.169921875
0.181640625
0.1640625
0.140625
0.0791015625
-0.01171875
-0.1201171875
-0.2080078125
-0.263671875
-0.2958984375
-0.2900390625
-0.2724609375
-0.251953125
-0.22265625
-0.1875
-0.158203125
-0.12890625
-0.1083984375
-0.0966796875
-0.087890625
-0.0791015625
-0.0732421875
-0.0673828125
-0.0615234375
-0.0673828125
-0.0703125
-0.064453125
-0.0615234375
-0.064453125
-0.0556640625
-0.0498046875
-0.0380859375
-0.0380859375
-0.0322265625
-0.0380859375
-0.03515625
-0.017578125
0.0029296875
0.0615234375
0.0849609375
0.076171875
0.017578125
-0.029296875
-0.0673828125
-0.1025390625
-0.09375
-0.0849609375
-0.076171875
-0.0732421875
-0.052734375
-0.046875
-0.0908203125
-0.099609375
0.3603515625
1.01953125
0.92578125
0.041015625
-0.234375
-0.2607421875
-0.2314453125
-0.228515625
-0.2080078125
-0.1875
-0.1611328125
-0.1435546875
-0.123046875
-0.1025390625
-0.08203125
-0.0615234375
-0.0322265625
-0.0205078125
0.0029296875
0.0205078125
0.0439453125
0.0703125
0.099609375
0.134765625
0.1669921875
0.193359375
0.19921875
0.193359375
0.1669921875
0.0966796875
-0.01171875
-0.12890625
-0.2138671875
-0.2607421875
-0.29296875
-0.2958984375
-0.275390625
-0.2548828125
-0.2255859375
-0.193359375
-0.1640625
-0.1435546875
-0.1201171875
-0.0966796875
-0.0849609375
-0.076171875
-0.0703125
-0.0703125
-0.0615234375
-0.0732421875
-0.0615234375
-0.0556640625
-0.052734375
-0.046875
-0.046875
-0.0439453125
-0.041015625
-0.0439453125
-0.029296875
-0.0234375
-0.0234375
-0.0205078125
-0.0029296875
0.0087890625
0.0703125
0.0908203125
0.0966796875
0.03515625
-0.0087890625
-0.0439453125
-0.0732421875
-0.0703125
-0.064453125
-0.046875
-0.046875
-0.0380859375
-0.0322265625
-0.052734375
-0.0966796875
0.31640625
0.97265625
1.0048828125
0.1142578125
-0.1875
-0.2314453125
-0.2080078125
-0.19921875
-0.1875
-0.1669921875
-0.146484375
-0.12890625
-0.1025390625
-0.0908203125
-0.0673828125
-0.0439453125
-0.029296875
-0.0029296875
0.0205078125
0.0439453125
0.0615234375
0.099609375
0.123046875
0.1552734375
0.1962890625
0.22265625
0.2314453125
0.228515625
0.19921875
0.1376953125
0.03515625
-0.08203125
-0.1787109375
-0.2431640625
-0.2724609375
-0.2783203125
-0.2607421875
-0.2431640625
-0.216796875
-0.181640625
-0.15234375
-0.1201171875
-0.1025390625
-0.087890625
-0.0732421875
-0.05859375
-0.052734375
-0.046875
-0.0498046875
-0.0498046875
-0.0498046875
-0.0439453125
-0.029296875
-0.0380859375
-0.03515625
-0.029296875
-0.0234375
-0.0205078125
-0.0234375
-0.0146484375
-0.01171875
-0.005859375
-0.0029296875
0.0087890625
0.0087890625
0.0673828125
0.0908203125
0.111328125
0.0556640625
0.0146484375
0
-0.05859375
-0.0703125
-0.0556640625
-0.0498046875
-0.0380859375
-0.029296875
-0.0234375
-0.0205078125
-0.09375
0.1728515625
0.767578125
1.189453125
0.421875
-0.09375
-0.2373046875
-0.1962890625
-0.1875
-0.1787109375
-0.1669921875
-0.1494140625
-0.123046875
-0.1025390625
-0.087890625
-0.0703125
-0.0439453125
-0.0205078125
-0.01171875
0.0205078125
0.0380859375
0.0673828125
0.09375
0.1142578125
0.1376953125
0.1669921875
0.2080078125
0.228515625
0.2314453125
0.2109375
0.17578125
0.0849609375
-0.0380859375
-0.1435546875
-0.2109375
-0.2578125
-0.275390625
-0.2666015625
-0.2373046875
-0.2021484375
-0.1787109375
-0.134765625
-0.111328125
-0.076171875
-0.0556640625
-0.03515625
-0.0263671875
-0.0205078125
-0.01171875
-0.01171875
-0.01171875
-0.0205078125
-0.0234375
-0.0205078125
-0.0205078125
-0.017578125
-0.0205078125
-0.0234375
-0.0205078125
-0.0234375
-0.0234375
-0.0234375
-0.0234375
-0.017578125
-0.0234375
0.0263671875
0.05859375
0.0732421875
0.046875
-0.0146484375
-0.03515625
-0.09375
-0.10546875
-0.09375
-0.0908203125
-0.076171875
-0.064453125
-0.05859375
-0.046875
-0.1259765625
0.041015625
0.5947265625
1.1572265625
0.6123046875
-0.0732421875
-0.2724609375
-0.2490234375
-0.22265625
-0.2138671875
-0.2021484375
-0.1787109375
-0.1552734375
-0.1376953125
-0.1171875
-0.0966796875
-0.0732421875
-0.0615234375
-0.0439453125
-0.0263671875
-0.0029296875
0.017578125
0.046875
0.0791015625
0.1083984375
0.1376953125
0.1728515625
0.1962890625
0.2021484375
0.1962890625
0.1552734375
0.0791015625
-0.0322265625
-0.140625
-0.2197265625
-0.263671875
-0.2783203125
-0.2783203125
-0.2548828125
-0.234375
-0.2021484375
-0.1669921875
-0.134765625
-0.10546875
-0.08203125
-0.05859375
-0.0498046875
-0.046875
-0.0380859375
-0.0380859375
-0.046875
-0.046875
-0.052734375
-0.052734375
-0.0498046875
-0.046875
-0.0498046875
-0.052734375
-0.052734375
-0.0439453125
-0.046875
-0.0439453125
-0.0439453125
-0.046875
-0.0439453125
-0.046875
-0.0439453125
-0.0380859375
-0.03515625
0
0.0498046875
0.0703125
0.0439453125
-0.0146484375
-0.0439453125
-0.0791015625
-0.10546875
-0.0966796875
-0.0849609375
-0.0732421875
-0.064453125
-0.05859375
-0.046875
-0.1201171875
-0.0205078125
0.515625
1.119140625
0.708984375
-0.0498046875
-0.26953125
-0.24609375
-0.22265625
-0.2138671875
-0.19921875
-0.1787109375
-0.1611328125
-0.1376953125
-0.1171875
-0.0966796875
-0.0673828125
-0.0615234375
-0.03515625
-0.0146484375
0.0029296875
0.0263671875
0.0498046875
0.076171875
0.111328125
0.1494140625
0.1845703125
0.2109375
0.22265625
0.2080078125
0.17578125
0.10546875
-0.0087890625
-0.12890625
-0.216796875
-0.26953125
-0.3017578125
-0.298828125
-0.2841796875
-0.2666015625
-0.2314453125
-0.19921875
-0.1669921875
-0.1435546875
-0.1171875
-0.099609375
-0.0849609375
-0.0673828125
-0.064453125
-0.064453125
-0.0498046875
-0.046875
-0.0439453125
-0.0498046875
-0.052734375
-0.046875
-0.0380859375
-0.0439453125
-0.0263671875
-0.029296875
-0.0234375
-0.0234375
-0.0263671875
-0.0146484375
-0.0087890625
-0.0087890625
0.0029296875
-0.0146484375
-0.0029296875
-0.0029296875
0.0146484375
0.017578125
0.0908203125
0.0908203125
0.08203125
0.029296875
-0.0029296875
-0.0380859375
-0.0732421875
-0.0703125
-0.0556640625
-0.0498046875
-0.0380859375
-0.0380859375
-0.0205078125
-0.0673828125
-0.0732421875
0.375
1.01953125
0.919921875
0.064453125
-0.2109375
-0.2373046875
-0.2109375
-0.19921875
-0.1904296875
-0.1669921875
-0.1552734375
-0.1376953125
-0.10546875
-0.087890625
-0.0732421875
-0.046875
-0.0263671875
-0.0087890625
0.0087890625
0.029296875
0.052734375
0.0791015625
0.1025390625
0.146484375
0.1845703125
0.2080078125
0.2314453125
0.2255859375
0.205078125
0.146484375
0.03515625
-0.0849609375
-0.1875
-0.2548828125
-0.287109375
-0.2958984375
-0.2900390625
-0.275390625
-0.2490234375
-0.216796875
-0.1787109375
-0.1494140625
-0.123046875
-0.1025390625
-0.0908203125
-0.08203125
-0.0673828125
-0.0556640625
-0.0498046875
-0.0556640625
-0.046875
-0.046875
-0.052734375
-0.046875
-0.041015625
-0.0439453125
-0.041015625
-0.029296875
-0.029296875
-0.0263671875
-0.0234375
-0.017578125
-0.017578125
-0.0146484375
-0.01171875
-0.0146484375
-0.0029296875
0
0
0
-0.0087890625
0.0087890625
0.0029296875
0.0849609375
0.0908203125
0.0849609375
0.0263671875
0
-0.0322265625
-0.0673828125
-0.0615234375
-0.0439453125
-0.046875
-0.0380859375
-0.0263671875
-0.0205078125
-0.076171875
-0.041015625
0.43359375
1.060546875
0.8232421875
0.01171875
-0.2255859375
-0.22265625
-0.2021484375
-0.193359375
-0.1845703125
-0.15234375
-0.1435546875
-0.1259765625
-0.10546875
-0.0849609375
-0.0673828125
-0.046875
-0.0234375
-0.0029296875
0.0087890625
0.0322265625
0.0556640625
0.0791015625
0.111328125
0.146484375
0.1787109375
0.2080078125
0.228515625
0.228515625
0.19921875
0.146484375
0.03515625
-0.087890625
-0.1875
-0.2578125
-0.2958984375
-0.298828125
-0.3017578125
-0.2783203125
-0.24609375
-0.2109375
-0.1787109375
-0.1552734375
-0.1318359375
-0.1025390625
-0.087890625
-0.0732421875
-0.064453125
-0.0615234375
-0.0732421875
-0.0615234375
-0.0498046875
-0.0439453125
-0.046875
-0.046875
-0.0380859375
-0.0322265625
-0.0380859375
-0.0234375
-0.029296875
-0.029296875
-0.0146484375
-0.005859375
-0.01171875
-0.005859375
-0.0029296875
0.0029296875
0.0029296875
0.005859375
0.0087890625
0.017578125
0.0615234375
0.0966796875
0.111328125
0.064453125
0.0205078125
0
-0.052734375
-0.05859375
-0.052734375
-0.0380859375
-0.0439453125
-0.0263671875
-0.0146484375
-0.0263671875
-0.087890625
0.228515625
0.837890625
1.107421875
0.3251953125
-0.0966796875
-0.251953125
-0.2109375
-0.19921875
-0.17578125
-0.1611328125
-0.146484375
-0.1259765625
-0.10546875
-0.08203125
-0.0615234375
-0.0439453125
-0.029296875
-0.0087890625
0.01171875
0.029296875
0.0498046875
0.0732421875
0.10546875
0.140625
0.1669921875
0.193359375
0.2138671875
0.22265625
0.205078125
0.1728515625
0.087890625
-0.0322265625
-0.146484375
-0.228515625
-0.2841796875
-0.3076171875
-0.310546875
-0.2900390625
-0.263671875
-0.2314453125
-0.2021484375
-0.1669921875
-0.146484375
-0.1142578125
-0.1025390625
-0.08203125
-0.0732421875
-0.064453125
-0.0703125
-0.0732421875
-0.05859375
-0.05859375
-0.052734375
-0.046875
-0.0498046875
-0.046875
-0.0439453125
-0.0439453125
-0.0380859375
-0.046875
-0.0380859375
-0.0380859375
-0.0380859375
-0.0263671875
-0.029296875
-0.0263671875
-0.0234375
-0.0234375
-0.01171875
-0.0029296875
0.0703125
0.08203125
0.0673828125
0.005859375
-0.0146484375
-0.05859375
-0.0791015625
-0.076171875
-0.0615234375
-0.0498046875
-0.0498046875
-0.041015625
-0.0263671875
-0.099609375
0.017578125
0.5625
1.1484375
0.685546875
-0.0380859375
-0.24609375
-0.234375
-0.2080078125
-0.19921875
-0.1875
-0.1640625
-0.1435546875
-0.1259765625
-0.1142578125
-0.0908203125
-0.0703125
-0.052734375
-0.0263671875
-0.0087890625
0.0087890625
0.029296875
0.0498046875
0.09375
0.1201171875
0.1611328125
0.1904296875
0.2255859375
0.2314453125
0.228515625
0.1962890625
0.1376953125
0.005859375
-0.10546875
-0.2138671875
-0.2666015625
-0.2958984375
-0.3134765625
-0.2958984375
-0.2724609375
-0.240234375
-0.2021484375
-0.169921875
-0.1435546875
-0.1142578125
-0.09375
-0.08203125
-0.0673828125
-0.0615234375
-0.052734375
-0.052734375
-0.041015625
-0.046875
-0.0439453125
-0.0439453125
-0.0439453125
-0.041015625
-0.029296875
-0.0234375
-0.029296875
-0.029296875
-0.0263671875
-0.0205078125
-0.017578125
-0.005859375
-0.0146484375
-0.0087890625
-0.0029296875
0.005859375
-0.005859375
-0.0087890625
0.0029296875
0.0087890625
0.064453125
0.09375
0.111328125
0.05859375
0.0087890625
-0.01171875
-0.0703125
-0.0791015625
-0.0673828125
-0.052734375
-0.0498046875
-0.0439453125
-0.0234375
-0.0234375
-0.10546875
0.1259765625
0.708984375
1.154296875
0.4453125
-0.1025390625
-0.2548828125
-0.2109375
-0.193359375
-0.193359375
-0.17578125
-0.158203125
-0.1318359375
-0.1083984375
-0.0849609375
-0.076171875
-0.052734375
-0.03515625
-0.0205078125
-0.0087890625
0.017578125
0.0439453125
0.064453125
0.09375
0.12890625
0.158203125
0.19921875
0.2373046875
0.24609375
0.234375
0.205078125
0.1171875
-0.0087890625
-0.1259765625
-0.2197265625
-0.28125
-0.3134765625
-0.310546875
-0.2958984375
-0.2783203125
-0.240234375
-0.205078125
-0.17578125
-0.1435546875
-0.123046875
-0.10546875
-0.087890625
-0.08203125
-0.0615234375
-0.0556640625
-0.0498046875
-0.05859375
-0.0498046875
-0.041015625
-0.0439453125
-0.0380859375
-0.041015625
-0.029296875
-0.029296875
-0.03515625
-0.0234375
-0.0263671875
-0.017578125
-0.0146484375
-0.017578125
-0.01171875
-0.0146484375
-0.01171875
-0.01171875
-0.0087890625
0.0029296875
0.0029296875
0.0087890625
0.0234375
0.087890625
0.111328125
0.0966796875
0.041015625
-0.0029296875
-0.0439453125
-0.0703125
-0.064453125
-0.0556640625
-0.046875
-0.0380859375
-0.03515625
-0.0234375
-0.0732421875
-0.05859375
0.4130859375
1.0576171875
0.87890625
0.0380859375
-0.2197265625
-0.2314453125
-0.19921875
-0.19921875
-0.17578125
-0.15234375
-0.140625
-0.1171875
-0.1025390625
-0.087890625
-0.0615234375
-0.0380859375
-0.0234375
-0.005859375
0.017578125
0.0439453125
0.0556640625
0.08203125
0.123046875
0.1611328125
0.1875
0.2255859375
0.2431640625
0.2548828125
0.234375
0.1728515625
0.064453125
-0.05859375
-0.1845703125
-0.2607421875
-0.29296875
-0.3076171875
-0.3017578125
-0.2841796875
-0.2607421875
-0.2255859375
-0.19921875
-0.1552734375
-0.12890625
-0.1025390625
-0.087890625
-0.076171875
-0.046875
-0.046875
-0.0439453125
-0.03515625
-0.0380859375
-0.0322265625
-0.0380859375
-0.0205078125
-0.0263671875
-0.0205078125
-0.0205078125
-0.0146484375
-0.0205078125
-0.017578125
-0.017578125
-0.0029296875
0.005859375
0.005859375
-0.0087890625
0.005859375
0.0146484375
0.005859375
0.01171875
0.0146484375
0.0205078125
0.0849609375
0.1142578125
0.1259765625
0.0849609375
0.029296875
-0.0234375
-0.0615234375
-0.0615234375
-0.05859375
-0.046875
-0.0234375
-0.0234375
-0.0234375
-0.0380859375
-0.0791015625
0.310546875
0.955078125
1.0107421875
0.1904296875
-0.1376953125
-0.2490234375
-0.2109375
-0.19921875
-0.193359375
-0.1640625
-0.15234375
-0.134765625
-0.1083984375
-0.08203125
-0.0732421875
-0.0439453125
-0.0263671875
-0.0146484375
-0.005859375
0.0205078125
0.0439453125
0.0673828125
0.09375
0.1376953125
0.1640625
0.19921875
0.2138671875
0.22265625
0.19921875
0.1640625
0.0703125
-0.05859375
-0.1728515625
-0.2548828125
-0.3017578125
-0.328125
-0.328125
-0.3017578125
-0.2841796875
-0.2431640625
-0.2109375
-0.1787109375
-0.146484375
-0.1318359375
-0.1171875
-0.09375
-0.0908203125
-0.08203125
-0.076171875
-0.0703125
-0.0673828125
-0.064453125
-0.0615234375
-0.05859375
-0.0498046875
-0.046875
-0.052734375
-0.046875
-0.0439453125
-0.0439453125
-0.0380859375
-0.03515625
-0.03515625
-0.0380859375
-0.0234375
-0.0146484375
-0.017578125
-0.0146484375
0
0.05859375
0.0908203125
0.111328125
0.0615234375
0.0087890625
-0.029296875
-0.076171875
-0.09375
-0.08203125
-0.0732421875
-0.05859375
-0.052734375
-0.046875
-0.03515625
-0.1171875
0.1376953125
0.744140625
1.171875
0.4306640625
-0.1083984375
-0.263671875
-0.234375
-0.2138671875
-0.19921875
-0.1845703125
-0.1640625
-0.1318359375
-0.1171875
-0.09375
-0.0732421875
-0.05859375
-0.0380859375
-0.017578125
0.0029296875
0.0234375
0.046875
0.0703125
0.0966796875
0.1376953125
0.17578125
0.2109375
0.2431640625
0.2548828125
0.2431640625
0.1962890625
0.1142578125
-0.005859375
-0.1435546875
-0.2373046875
-0.29296875
-0.3134765625
-0.31640625
-0.3017578125
-0.2724609375
-0.24609375
-0.22265625
-0.1875
-0.1552734375
-0.134765625
-0.111328125
-0.0849609375
-0.0673828125
-0.064453125
-0.0615234375
-0.052734375
-0.052734375
-0.0439453125
-0.046875
-0.041015625
-0.0380859375
-0.0322265625
-0.0234375
-0.0234375
-0.0263671875
-0.0205078125
-0.0205078125
-0.0205078125
-0.0234375
-0.0087890625
-0.0029296875
-0.0146484375
0.005859375
0.005859375
-0.0029296875
0.0087890625
0.029296875
0.09375
0.1171875
0.1142578125
0.0703125
0.0087890625
-0.0380859375
-0.064453125
-0.076171875
-0.05859375
-0.0556640625
-0.046875
-0.03515625
-0.0234375
-0.0439453125
-0.0966796875
0.3046875
0.955078125
1.04296875
0.1494140625
-0.1787109375
-0.2490234375
-0.2080078125
-0.2109375
-0.1875
-0.169921875
-0.158203125
-0.12890625
-0.1083984375
-0.0908203125
-0.0673828125
-0.0498046875
-0.03515625
-0.01171875
-0.0029296875
0.0322265625
0.052734375
0.0791015625
0.1142578125
0.15234375
0.1962890625
0.228515625
0.2578125
0.2607421875
0.2490234375
0.2021484375
0.0908203125
-0.0498046875
-0.1728515625
-0.2607421875
-0.3076171875
-0.3251953125
-0.31640625
-0.3017578125
-0.263671875
-0.240234375
-0.216796875
-0.181640625
-0.1640625
-0.134765625
-0.10546875
-0.0849609375
-0.0732421875
-0.05859375
-0.0556640625
-0.0498046875
-0.0439453125
-0.0380859375
-0.03515625
-0.03515625
-0.0234375
-0.0234375
-0.0263671875
-0.0205078125
-0.029296875
-0.0205078125
-0.01171875
-0.0146484375
-0.017578125
0
-0.0087890625
0
0
0
0
0
0.0205078125
0.076171875
0.0908203125
0.1259765625
0.09375
0.029296875
0.005859375
-0.052734375
-0.0703125
-0.046875
-0.046875
-0.046875
-0.03515625
-0.0234375
-0.0146484375
-0.099609375
0.140625
0.7236328125
1.18359375
0.509765625
-0.0732421875
-0.2548828125
-0.216796875
-0.2021484375
-0.1904296875
-0.169921875
-0.158203125
-0.1318359375
-0.1083984375
-0.09375
-0.0673828125
-0.046875
-0.0322265625
0
0.01171875
0.0205078125
0.052734375
0.08203125
0.1025390625
0.1435546875
0.1845703125
0.22265625
0.251953125
0.2666015625
0.263671875
0.2314453125
0.146484375
0.01171875
-0.111328125
-0.216796875
-0.28125
-0.3076171875
-0.310546875
-0.2958984375
-0.26953125
-0.2490234375
-0.2197265625
-0.1962890625
-0.1640625
-0.12890625
-0.10546875
-0.0849609375
-0.0732421875
-0.0615234375
-0.052734375
-0.052734375
-0.0498046875
-0.041015625
-0.0439453125
-0.046875
-0.041015625
-0.029296875
-0.0263671875
-0.0263671875
-0.0205078125
-0.0146484375
-0.01171875
-0.0205078125
-0.0263671875
-0.01171875
-0.01171875
-0.0029296875
-0.0087890625
0.0498046875
0.0849609375
0.111328125
0.0615234375
0.0029296875
-0.029296875
-0.076171875
-0.0908203125
-0.08203125
-0.076171875
-0.0673828125
-0.052734375
-0.046875
-0.0439453125
-0.123046875
0.1845703125
0.802734375
1.1279296875
0.3193359375
-0.1201171875
-0.2841796875
-0.2548828125
-0.2255859375
-0.2109375
-0.1962890625
-0.17578125
-0.1552734375
-0.1435546875
-0.1171875
-0.099609375
-0.076171875
-0.0615234375
-0.0380859375
-0.0234375
0.0029296875
0.0205078125
0.046875
0.076171875
0.1142578125
0.1494140625
0.1904296875
0.2138671875
0.22265625
0.2109375
0.1787109375
0.087890625
-0.046875
-0.158203125
-0.2431640625
-0.3017578125
-0.322265625
-0.322265625
-0.3076171875
-0.2841796875
-0.2548828125
-0.22265625
-0.1875
-0.15234375
-0.1318359375
-0.1142578125
-0.087890625
-0.0791015625
-0.0615234375
-0.05859375
-0.052734375
-0.052734375
-0.0498046875
-0.0498046875
-0.046875
-0.046875
-0.03515625
-0.03515625
-0.0380859375
-0.0380859375
-0.029296875
-0.029296875
-0.0263671875
-0.0205078125
-0.0146484375
-0.0146484375
-0.0146484375
-0.0029296875
0.005859375
0.08203125
0.099609375
0.1201171875
0.0673828125
0
-0.029296875
-0.076171875
-0.076171875
-0.064453125
-0.05859375
-0.0498046875
-0.046875
-0.03515625
-0.029296875
-0.10546875
0.1904296875
0.7939453125
1.1689453125
0.3720703125
-0.1201171875
-0.24609375
-0.205078125
-0.2021484375
-0.193359375
-0.1728515625
-0.1552734375
-0.1318359375
-0.1142578125
-0.09375
-0.0673828125
-0.0498046875
-0.03515625
-0.005859375
0.0087890625
0.0263671875
0.046875
0.08203125
0.111328125
0.146484375
0.1962890625
0.234375
0.263671875
0.275390625
0.26953125
0.22265625
0.12890625
-0.0029296875
-0.140625
-0.234375
-0.298828125
-0.3193359375
-0.310546875
-0.3017578125
-0.2724609375
-0.24609375
-0.2138671875
-0.1875
-0.1640625
-0.134765625
-0.1171875
-0.0966796875
-0.08203125
-0.0673828125
-0.052734375
-0.05859375
-0.0439453125
-0.046875
-0.03515625
-0.0380859375
-0.03515625
-0.0322265625
-0.0205078125
-0.0146484375
-0.01171875
-0.01171875
-0.0146484375
-0.0087890625
-0.0087890625
-0.01171875
-0.01171875
-0.005859375
0.01171875
0.0146484375
0.0732421875
0.0966796875
0.10546875
0.0556640625
0.01171875
-0.01171875
-0.0703125
-0.0673828125
-0.052734375
-0.052734375
-0.041015625
-0.0234375
-0.017578125
-0.0146484375
-0.0849609375
0.216796875
0.8349609375
1.1806640625
0.36328125
-0.10546875
-0.2373046875
-0.2109375
-0.1962890625
-0.1875
-0.1669921875
-0.140625
-0.1259765625
-0.111328125
-0.0791015625
-0.0673828125
-0.052734375
-0.0234375
-0.0087890625
0.01171875
0.0380859375
0.0615234375
0.08203125
0.1083984375
0.15234375
0.1962890625
0.240234375
0.2607421875
0.2783203125
0.2783203125
0.228515625
0.12890625
-0.005859375
-0.134765625
-0.2373046875
-0.287109375
-0.310546875
-0.3046875
-0.2841796875
-0.26953125
-0.234375
-0.216796875
-0.181640625
-0.1494140625
-0.1259765625
-0.10546875
-0.0908203125
-0.0615234375
-0.064453125
-0.0380859375
-0.0380859375
-0.0263671875
-0.0234375
-0.0234375
-0.029296875
-0.0205078125
-0.0146484375
-0.017578125
-0.017578125
-0.017578125
-0.0029296875
0
-0.0029296875
0.0029296875
0.0087890625
0.0205078125
0.0791015625
0.099609375
0.0791015625
0.017578125
-0.0029296875
-0.0498046875
-0.0673828125
-0.0556640625
-0.046875
-0.0380859375
-0.0380859375
-0.0263671875
-0.005859375
-0.0791015625
0.0029296875
0.5478515625
1.1513671875
0.7470703125
0.01171875
-0.2197265625
-0.2724609375
-0.234375
-0.2109375
-0.2080078125
-0.1845703125
-0.1640625
-0.146484375
-0.123046875
-0.1142578125
-0.0908203125
-0.0673828125
-0.041015625
-0.03515625
-0.0029296875
0.01171875
0.03515625
0.064453125
0.099609375
0.12890625
0.17578125
0.2138671875
0.2255859375
0.22265625
0.1787109375
0.1201171875
0.0029296875
-0.123046875
-0.234375
-0.298828125
-0.3369140625
-0.3310546875
-0.3134765625
-0.29296875
-0.2724609375
-0.2373046875
-0.216796875
-0.181640625
-0.1435546875
-0.1201171875
-0.10546875
-0.08203125
-0.064453125
-0.0703125
-0.05859375
-0.05859375
-0.052734375
-0.0556640625
-0.0556640625
-0.046875
-0.0439453125
-0.0380859375
-0.0380859375
-0.0380859375
-0.03515625
-0.029296875
-0.0205078125
-0.0234375
-0.0146484375
-0.0029296875
0.029296875
0.0849609375
0.0908203125
0.0703125
0.01171875
-0.0205078125
-0.052734375
-0.08203125
-0.0673828125
-0.05859375
-0.046875
-0.041015625
-0.03515625
-0.017578125
-0.0849609375
0
0.52734375
1.154296875
0.80859375
-0.005859375
-0.2490234375
-0.2109375
-0.2021484375
-0.19921875
-0.1875
-0.1669921875
-0.1435546875
-0.1259765625
-0.10546875
-0.0849609375
-0.0615234375
-0.046875
-0.0263671875
-0.0029296875
0.0146484375
0.0263671875
0.05859375
0.09375
0.12890625
0.17578125
0.2197265625
0.251953125
0.2666015625
0.2724609375
0.2373046875
0.169921875
0.0439453125
-0.0966796875
-0.2080078125
-0.275390625
-0.3134765625
-0.322265625
-0.3046875
-0.2783203125
-0.2578125
-0.228515625
-0.2021484375
-0.1669921875
-0.1435546875
-0.1259765625
-0.10546875
-0.087890625
-0.0703125
-0.064453125
-0.052734375
-0.0498046875
-0.0439453125
-0.041015625
-0.0380859375
-0.0322265625
-0.029296875
-0.0322265625
-0.0205078125
-0.0205078125
-0.017578125
-0.0146484375
-0.01171875
-0.005859375
0
-0.0029296875
0.0146484375
0.041015625
0.09375
0.10546875
0.0732421875
0.017578125
0.005859375
-0.0498046875
-0.0732421875
-0.064453125
-0.052734375
-0.0380859375
-0.029296875
-0.0205078125
-0.017578125
-0.0908203125
0.01171875
0.5390625
1.142578125
0.7412109375
-0.0146484375
-0.2431640625
-0.22265625
-0.205078125
-0.1962890625
-0.1875
-0.1640625
-0.1318359375
-0.1142578125
-0.09375
-0.087890625
-0.0615234375
-0.041015625
-0.017578125
-0.0087890625
0.0087890625
0.0498046875
0.0703125
0.10546875
0.134765625
0.1728515625
0.2109375
0.2373046875
0.2578125
0.263671875
0.240234375
0.1611328125
0.0322265625
-0.10546875
-0.19921875
-0.2724609375
-0.3076171875
-0.310546875
-0.29296875
-0.275390625
-0.24609375
-0.2255859375
-0.1845703125
-0.1640625
-0.134765625
-0.1171875
-0.09375
-0.0849609375
-0.064453125
-0.0498046875
-0.041015625
-0.0380859375
-0.03515625
-0.029296875
-0.029296875
-0.0205078125
-0.017578125
-0.0234375
-0.01171875
-0.0205078125
-0.0146484375
-0.0029296875
0
-0.0029296875
-0.0029296875
0.0205078125
0.005859375
0.0732421875
0.1025390625
0.1025390625
0.0439453125
0.0146484375
-0.01171875
-0.0498046875
-0.0556640625
-0.052734375
-0.041015625
-0.029296875
-0.017578125
-0.017578125
-0.01171875
-0.087890625
0.2373046875
0.85546875
1.142578125
0.36328125
-0.087890625
-0.2724609375
-0.234375
-0.2197265625
-0.2021484375
-0.181640625
-0.1640625
-0.12890625
-0.1201171875
-0.1083984375
-0.0849609375
-0.0703125
-0.0439453125
-0.0205078125
-0.0087890625
0.0205078125
0.029296875
0.05859375
0.0908203125
0.1142578125
0.1494140625
0.1962890625
0.2197265625
0.2255859375
0.2197265625
0.169921875
0.0849609375
-0.0380859375
-0.1611328125
-0.2431640625
-0.29296875
-0.31640625
-0.3193359375
-0.3017578125
-0.2724609375
-0.24609375
-0.2109375
-0.1875
-0.158203125
-0.1376953125
-0.10546875
-0.0966796875
-0.08203125
-0.0673828125
-0.0703125
-0.05859375
-0.0615234375
-0.05859375
-0.052734375
-0.0556640625
-0.0439453125
-0.0439453125
-0.0439453125
-0.046875
-0.046875
-0.0380859375
-0.029296875
-0.03515625
-0.0263671875
-0.01171875
0.03515625
0.0673828125
0.0908203125
0.0556640625
-0.01171875
-0.0263671875
-0.0673828125
-0.0908203125
-0.0732421875
-0.064453125
-0.0556640625
-0.046875
-0.029296875
-0.0205078125
-0.09375
0.0087890625
0.5537109375
1.171875
0.7705078125
-0.0205078125
-0.2607421875
-0.2373046875
-0.228515625
-0.2109375
-0.193359375
-0.169921875
-0.15234375
-0.1318359375
-0.111328125
-0.0908203125
-0.0732421875
-0.052734375
-0.029296875
-0.005859375
0.01171875
0.029296875
0.05859375
0.0908203125
0.1318359375
0.1640625
0.2080078125
0.2431640625
0.251953125
0.251953125
0.2314453125
0.1494140625
0.029296875
-0.0966796875
-0.2109375
-0.275390625
-0.310546875
-0.3134765625
-0.298828125
-0.2783203125
-0.24609375
-0.2109375
-0.1875
-0.1611328125
-0.1376953125
-0.1142578125
-0.0966796875
-0.0732421875
-0.0703125
-0.046875
-0.0556640625
-0.03515625
-0.0498046875
-0.03515625
-0.0322265625
-0.041015625
-0.0263671875
-0.029296875
-0.0234375
-0.0234375
-0.0146484375
-0.0087890625
-0.0146484375
-0.005859375
0
0.0029296875
0.052734375
0.087890625
0.0966796875
0.064453125
0.0087890625
-0.01171875
-0.0556640625
-0.0732421875
-0.0615234375
-0.05859375
-0.046875
-0.041015625
-0.0263671875
-0.017578125
-0.1083984375
0.0791015625
0.64453125
1.1923828125
0.603515625
-0.064453125
-0.240234375
-0.2138671875
-0.2021484375
-0.1904296875
-0.1728515625
-0.1552734375
-0.134765625
-0.1171875
-0.099609375
-0.08203125
-0.0615234375
-0.0380859375
-0.0087890625
0
0.0263671875
0.0498046875
0.0673828125
0.1025390625
0.134765625
0.1669921875
0.2138671875
0.24609375
0.251953125
0.2578125
0.2109375
0.1318359375
0.0087890625
-0.1318359375
-0.2197265625
-0.2841796875
-0.3193359375
-0.3076171875
-0.3046875
-0.2724609375
-0.2490234375
-0.216796875
-0.1875
-0.1669921875
-0.1376953125
-0.111328125
-0.087890625
-0.0849609375
-0.0703125
-0.05859375
-0.0556640625
-0.041015625
-0.046875
-0.03515625
-0.0439453125
-0.0263671875
-0.0146484375
-0.01171875
-0.0263671875
-0.0146484375
-0.005859375
-0.01171875
0
0
0.0029296875
0.01171875
0.0703125
0.0966796875
0.1083984375
0.0439453125
0.017578125
-0.005859375
-0.0556640625
-0.0673828125
-0.0439453125
-0.041015625
-0.029296875
-0.0263671875
-0.017578125
-0.0146484375
-0.08203125
0.193359375
0.7998046875
1.189453125
0.4453125
-0.08203125
-0.2548828125
-0.2255859375
-0.1962890625
-0.1875
-0.169921875
-0.15234375
-0.1201171875
-0.1142578125
-0.087890625
-0.0732421875
-0.0439453125
-0.029296875
-0.0146484375
0
0.041015625
0.0498046875
0.0732421875
0.1025390625
0.140625
0.169921875
0.216796875
0.2373046875
0.251953125
0.2373046875
0.193359375
0.1083984375
-0.0146484375
-0.1318359375
-0.216796875
-0.2783203125
-0.2958984375
-0.3046875
-0.287109375
-0.263671875
-0.2431640625
-0.2138671875
-0.1787109375
-0.1435546875
-0.111328125
-0.09375
-0.08203125
-0.0673828125
-0.052734375
-0.0498046875
-0.041015625
-0.0498046875
-0.0439453125
-0.03515625
-0.03515625
-0.041015625
-0.029296875
-0.029296875
-0.029296875
-0.0322265625
-0.0205078125
-0.005859375
0.0322265625
0.064453125
0.09375
0.064453125
0.0087890625
0
-0.064453125
-0.0703125
-0.05859375
-0.064453125
-0.0556640625
-0.0439453125
-0.0380859375
-0.029296875
-0.076171875
-0.0673828125
0.451171875
1.1220703125
0.87890625
0.046875
-0.205078125
-0.2666015625
-0.2255859375
-0.22265625
-0.2109375
-0.193359375
-0.1669921875
-0.1318359375
-0.1201171875
-0.1025390625
-0.08203125
-0.0673828125
-0.0380859375
-0.0234375
-0.005859375
0.0205078125
0.041015625
0.0703125
0.099609375
0.140625
0.1787109375
0.2021484375
0.216796875
0.2197265625
0.205078125
0.1376953125
0.0146484375
-0.099609375
-0.2021484375
-0.26953125
-0.2958984375
-0.3046875
-0.29296875
-0.275390625
-0.2431640625
-0.2109375
-0.1787109375
-0.1494140625
-0.12890625
-0.10546875
-0.08203125
-0.08203125
-0.064453125
-0.05859375
-0.05859375
-0.0556640625
-0.0556640625
-0.052734375
-0.046875
-0.046875
-0.0439453125
-0.0380859375
-0.0380859375
-0.03515625
-0.029296875
-0.0234375
-0.0234375
-0.0234375
-0.005859375
-0.0087890625
0.0673828125
0.08203125
0.08203125
0.0439453125
-0.01171875
-0.0322265625
-0.0791015625
-0.08203125
-0.0703125
-0.0615234375
-0.052734375
-0.046875
-0.0380859375
-0.0146484375
-0.1025390625
0.134765625
0.7177734375
1.20703125
0.5068359375
-0.0966796875
-0.2548828125
-0.2255859375
-0.216796875
-0.2021484375
-0.1787109375
-0.1552734375
-0.140625
-0.1142578125
-0.09375
-0.0791015625
-0.05859375
-0.03515625
-0.0146484375
0
0.0205078125
0.046875
0.064453125
0.1025390625
0.140625
0.17578125
0.216796875
0.2490234375
0.251953125
0.24609375
0.22265625
0.123046875
0.005859375
-0.1259765625
-0.22265625
-0.2783203125
-0.310546875
-0.3046875
-0.2900390625
-0.2666015625
-0.240234375
-0.205078125
-0.1787109375
-0.158203125
-0.1376953125
-0.111328125
-0.09375
-0.076171875
-0.0673828125
-0.05859375
-0.052734375
-0.0439453125
-0.0380859375
-0.0439453125
-0.03515625
-0.03515625
-0.029296875
-0.0234375
-0.0263671875
-0.0146484375
-0.0205078125
-0.017578125
-0.017578125
-0.017578125
-0.005859375
0.0087890625
0.01171875
0.08203125
0.09375
0.0908203125
0.03515625
-0.0029296875
-0.0380859375
-0.0703125
-0.0703125
-0.052734375
-0.0498046875
-0.0380859375
-0.029296875
-0.0234375
-0.046875
-0.0908203125
0.3134765625
0.97265625
1.048828125
0.123046875
-0.181640625
-0.2373046875
-0.2080078125
-0.2080078125
-0.1875
-0.1640625
-0.15234375
-0.12890625
-0.099609375
-0.0791015625
-0.0673828125
-0.041015625
-0.029296875
-0.01171875
0.0087890625
0.0234375
0.0556640625
0.0908203125
0.111328125
0.1494140625
0.1875
0.228515625
0.24609375
0.2548828125
0.240234375
0.181640625
0.0673828125
-0.046875
-0.1640625
-0.2490234375
-0.2958984375
-0.31640625
-0.298828125
-0.28125
-0.251953125
-0.228515625
-0.19921875
-0.169921875
-0.1552734375
-0.123046875
-0.099609375
-0.0791015625
-0.0703125
-0.0615234375
-0.052734375
-0.0380859375
-0.046875
-0.0380859375
-0.0263671875
-0.029296875
-0.0234375
-0.0322265625
-0.0205078125
-0.0146484375
-0.01171875
-0.01171875
-0.0146484375
-0.005859375
-0.005859375
0
-0.0029296875
0.0732421875
0.09375
0.1025390625
0.041015625
0.0234375
-0.017578125
-0.0615234375
-0.0615234375
-0.0439453125
-0.046875
-0.0234375
-0.0205078125
-0.01171875
-0.01171875
-0.0849609375
0.2666015625
0.896484375
1.1337890625
0.31640625
-0.099609375
-0.263671875
-0.228515625
-0.19921875
-0.19921875
-0.181640625
-0.1669921875
-0.146484375
-0.1259765625
-0.1025390625
-0.0849609375
-0.05859375
-0.03515625
-0.0234375
0.005859375
0.029296875
0.041015625
0.064453125
0.1025390625
0.12890625
0.158203125
0.2021484375
0.2255859375
0.228515625
0.22265625
0.1669921875
0.0908203125
-0.0380859375
-0.15234375
-0.234375
-0.287109375
-0.3076171875
-0.3017578125
-0.2783203125
-0.2548828125
-0.2255859375
-0.1904296875
-0.1669921875
-0.1318359375
-0.1083984375
-0.09375
-0.0849609375
-0.076171875
-0.0615234375
-0.05859375
-0.052734375
-0.0556640625
-0.0498046875
-0.0498046875
-0.052734375
-0.0498046875
-0.041015625
-0.03515625
-0.0380859375
-0.03515625
-0.029296875
-0.029296875
-0.0205078125
-0.005859375
0.01171875
0.0703125
0.087890625
0.0791015625
0.0205078125
-0.01171875
-0.0556640625
-0.09375
-0.0849609375
-0.076171875
-0.0673828125
-0.0556640625
-0.046875
-0.03515625
-0.0439453125
-0.1083984375
0.26953125
0.9228515625
1.1015625
0.2109375
-0.15234375
-0.263671875
-0.228515625
-0.216796875
-0.19921875
-0.181640625
-0.1640625
-0.146484375
-0.12890625
-0.099609375
-0.08203125
-0.05859375
-0.041015625
-0.0234375
-0.005859375
0.017578125
0.0439453125
0.0791015625
0.10546875
0.1376953125
0.17578125
0.2109375
0.2314453125
0.2490234375
0.22265625
0.181640625
0.076171875
-0.0498046875
-0.1669921875
-0.24609375
-0.2958984375
-0.310546875
-0.3046875
-0.2841796875
-0.2578125
-0.22265625
-0.193359375
-0.1611328125
-0.1318359375
-0.1083984375
-0.0908203125
-0.0791015625
-0.0703125
-0.0556640625
-0.052734375
-0.046875
-0.046875
-0.046875
-0.041015625
-0.046875
-0.041015625
-0.03515625
-0.03515625
-0.03515625
-0.0380859375
-0.0263671875
-0.0234375
-0.0234375
-0.0205078125
-0.01171875
0
0.0498046875
0.076171875
0.0966796875
0.05859375
0
-0.0205078125
-0.064453125
-0.0791015625
-0.0615234375
-0.0615234375
-0.0498046875
-0.0439453125
-0.029296875
-0.0234375
-0.09375
0.0263671875
0.5654296875
1.1630859375
0.7119140625
-0.0380859375
-0.24609375
-0.2138671875
-0.2080078125
-0.193359375
-0.1787109375
-0.1611328125
-0.1318359375
-0.1201171875
-0.1083984375
-0.0849609375
-0.0673828125
-0.052734375
-0.0263671875
-0.01171875
0.0029296875
0.041015625
0.076171875
0.087890625
0.1201171875
0.1640625
0.19921875
0.2314453125
0.2431640625
0.2431640625
0.2197265625
0.1376953125
0.017578125
-0.1142578125
-0.2109375
-0.2783203125
-0.3076171875
-0.3017578125
-0.2958984375
-0.275390625
-0.240234375
-0.2197265625
-0.1845703125
-0.1611328125
-0.12890625
-0.1142578125
-0.09375
-0.0673828125
-0.0556640625
-0.0380859375
-0.041015625
-0.0322265625
-0.0263671875
-0.0234375
-0.0146484375
-0.0234375
-0.005859375
-0.0205078125
-0.0205078125
-0.01171875
0.0029296875
-0.005859375
-0.0029296875
0.0234375
0
0.0615234375
0.0908203125
0.1142578125
0.0703125
0.0234375
0.0029296875
-0.0380859375
-0.05859375
-0.0498046875
-0.0263671875
-0.0205078125
-0.0205078125
-0.0087890625
0
-0.0732421875
0.1025390625
0.6767578125
1.2158203125
0.6181640625
-0.005859375
-0.2373046875
-0.240234375
-0.216796875
-0.1904296875
-0.1875
-0.1669921875
-0.140625
-0.123046875
-0.1083984375
-0.076171875
-0.05859375
-0.03515625
-0.0205078125
-0.005859375
0.0146484375
0.041015625
0.05859375
0.0908203125
0.1171875
0.1494140625
0.1787109375
0.205078125
0.2138671875
0.2138671875
0.181640625
0.111328125
-0.005859375
-0.123046875
-0.216796875
-0.2724609375
-0.2958984375
-0.3017578125
-0.2841796875
-0.2607421875
-0.228515625
-0.193359375
-0.1640625
-0.140625
-0.1171875
-0.0966796875
-0.076171875
-0.0703125
-0.0673828125
-0.05859375
-0.0556640625
-0.0556640625
-0.05859375
-0.052734375
-0.046875
-0.05859375
-0.0498046875
-0.0380859375
-0.0439453125
-0.03515625
-0.03515625
-0.0263671875
-0.0263671875
-0.0029296875
0.05859375
0.09375
0.0849609375
0.029296875
-0.0146484375
-0.052734375
-0.0849609375
-0.0849609375
-0.0703125
-0.0615234375
-0.05859375
-0.0439453125
-0.0322265625
-0.041015625
-0.1142578125
0.2431640625
0.896484375
1.1484375
0.26953125
-0.1494140625
-0.2724609375
-0.2314453125
-0.228515625
-0.2109375
-0.193359375
-0.169921875
-0.146484375
-0.12890625
-0.1083984375
-0.087890625
-0.05859375
-0.0380859375
-0.0234375
-0.0029296875
0.0205078125
0.0439453125
0.0732421875
0.10546875
0.140625
0.181640625
0.216796875
0.2373046875
0.2431640625
0.228515625
0.17578125
0.0703125
-0.052734375
-0.1669921875
-0.2490234375
-0.2900390625
-0.310546875
-0.298828125
-0.275390625
-0.2548828125
-0.22265625
-0.2021484375
-0.169921875
-0.1376953125
-0.111328125
-0.099609375
-0.0791015625
-0.0673828125
-0.0673828125
-0.0556640625
-0.0498046875
-0.046875
-0.041015625
-0.041015625
-0.041015625
-0.03515625
-0.03515625
-0.0263671875
-0.0234375
-0.0205078125
-0.017578125
-0.0146484375
0
0.0029296875
0.064453125
0.0849609375
0.1025390625
0.064453125
0
-0.0146484375
-0.064453125
-0.076171875
-0.064453125
-0.05859375
-0.052734375
-0.041015625
-0.0263671875
-0.0263671875
-0.0966796875
0.0263671875
0.57421875
1.177734375
0.732421875
-0.0234375
-0.24609375
-0.2197265625
-0.216796875
-0.1904296875
-0.1875
-0.1728515625
-0.1435546875
-0.1201171875
-0.0966796875
-0.0849609375
-0.0556640625
-0.0380859375
-0.0234375
0.0029296875
0.0205078125
0.0498046875
0.076171875
0.09375
0.1318359375
0.1669921875
0.2138671875
0.2373046875
0.2607421875
0.2548828125
0.2255859375
0.1435546875
0.017578125
-0.1171875
-0.2021484375
-0.2783203125
-0.3046875
-0.310546875
-0.287109375
-0.2607421875
-0.24609375
-0.2080078125
-0.181640625
-0.146484375
-0.123046875
-0.1025390625
-0.09375
-0.0703125
-0.0673828125
-0.052734375
-0.0380859375
-0.041015625
-0.0439453125
-0.0380859375
-0.0380859375
-0.0380859375
-0.0380859375
-0.0380859375
-0.0322265625
-0.029296875
-0.0322265625
-0.0234375
-0.017578125
-0.01171875
-0.0087890625
-0.005859375
0
0.0615234375
0.0849609375
0.1025390625
0.05859375
0.0029296875
-0.0146484375
-0.05859375
-0.0732421875
-0.0556640625
-0.052734375
-0.0439453125
-0.0322265625
-0.0234375
-0.017578125
-0.10546875
0.05859375
0.6123046875
1.171875
0.626953125
-0.0556640625
-0.2490234375
-0.2197265625
-0.2138671875
-0.205078125
-0.1787109375
-0.1669921875
-0.146484375
-0.123046875
-0.10546875
-0.087890625
-0.05859375
-0.041015625
-0.029296875
-0.0087890625
0
0.0322265625
0.0556640625
0.0908203125
0.12890625
0.158203125
0.1962890625
0.2314453125
0.2490234375
0.2431640625
0.2080078125
0.1259765625
0.0029296875
-0.1171875
-0.216796875
-0.29296875
-0.3193359375
-0.322265625
-0.2958984375
-0.2724609375
-0.2490234375
-0.2109375
-0.1875
-0.1640625
-0.12890625
-0.10546875
-0.0849609375
-0.0791015625
-0.064453125
-0.0556640625
-0.05859375
-0.0498046875
-0.041015625
-0.0380859375
-0.041015625
-0.03515625
-0.0322265625
-0.0263671875
-0.0234375
-0.03515625
-0.0087890625
-0.01171875
-0.0146484375
0
0
0.0029296875
0.005859375
0.0556640625
0.0791015625
0.1083984375
0.0498046875
0.017578125
-0.0146484375
-0.0615234375
-0.0673828125
-0.0439453125
-0.0380859375
-0.0380859375
-0.0234375
-0.0263671875
-0.0087890625
-0.0791015625
0.1376953125
0.7177734375
1.1923828125
0.544921875
-0.0498046875
-0.2607421875
-0.24609375
-0.2138671875
-0.19921875
-0.1875
-0.1640625
-0.140625
-0.1142578125
-0.0908203125
-0.0732421875
-0.0615234375
-0.0380859375
-0.0263671875
-0.0029296875
0.0263671875
0.0322265625
0.0556640625
0.0908203125
0.1201171875
0.15234375
0.1875
0.2197265625
0.228515625
0.2197265625
0.1875
0.1142578125
0
-0.12890625
-0.2255859375
-0.2783203125
-0.298828125
-0.298828125
-0.29296875
-0.263671875
-0.2255859375
-0.1904296875
-0.1611328125
-0.1376953125
-0.1171875
-0.099609375
-0.0849609375
-0.0732421875
-0.0673828125
-0.0673828125
-0.064453125
-0.0556640625
-0.052734375
-0.052734375
-0.046875
-0.0439453125
-0.0439453125
-0.041015625
-0.03515625
-0.0380859375
-0.0322265625
-0.029296875
-0.0205078125
-0.01171875
0.03515625
0.076171875
0.0966796875
0.05859375
-0.0087890625
-0.0205078125
-0.0732421875
-0.0849609375
-0.076171875
-0.064453125
-0.05859375
-0.0439453125
-0.0380859375
-0.0263671875
-0.1083984375
0.0146484375
0.5771484375
1.1748046875
0.7236328125
-0.0263671875
-0.2548828125
-0.2373046875
-0.216796875
-0.2109375
-0.193359375
-0.1669921875
-0.1494140625
-0.12890625
-0.1025390625
-0.087890625
-0.05859375
-0.0439453125
-0.0263671875
-0.0087890625
0.01171875
0.041015625
0.064453125
0.0966796875
0.123046875
0.1640625
0.1962890625
0.22265625
0.2314453125
0.2314453125
0.2021484375
0.1318359375
0.0146484375
-0.1171875
-0.2109375
-0.26953125
-0.298828125
-0.298828125
-0.2841796875
-0.2666015625
-0.24609375
-0.205078125
-0.169921875
-0.1435546875
-0.1171875
-0.099609375
-0.0791015625
-0.0732421875
-0.05859375
-0.05859375
-0.0498046875
-0.0556640625
-0.05859375
-0.041015625
-0.041015625
-0.0380859375
-0.0322265625
-0.029296875
-0.0263671875
-0.0263671875
-0.0205078125
-0.0205078125
-0.01171875
-0.01171875
-0.005859375
0.029296875
0.08203125
0.0966796875
0.0791015625
0.0205078125
-0.005859375
-0.046875
-0.076171875
-0.064453125
-0.046875
-0.0498046875
-0.0380859375
-0.0380859375
-0.0146484375
-0.0703125
-0.0556640625
0.4189453125
1.0751953125
0.931640625
0.0439453125
-0.2197265625
-0.234375
-0.2021484375
-0.2080078125
-0.1787109375
-0.1640625
-0.1435546875
-0.123046875
-0.1025390625
-0.0849609375
-0.05859375
-0.0380859375
-0.0263671875
0
0.017578125
0.03515625
0.064453125
0.0908203125
0.1201171875
0.15234375
0.1962890625
0.2197265625
0.2431640625
0.24609375
0.2314453125
0.1640625
0.052734375
-0.076171875
-0.1787109375
-0.2607421875
-0.2958984375
-0.3017578125
-0.2900390625
-0.2666015625
-0.24609375
-0.2138671875
-0.17578125
-0.15234375
-0.1259765625
-0.111328125
-0.09375
-0.076171875
-0.064453125
-0.052734375
-0.0556640625
-0.052734375
-0.046875
-0.046875
-0.046875
-0.041015625
-0.0380859375
-0.0263671875
-0.029296875
-0.0205078125
-0.0146484375
-0.01171875
-0.0146484375
-0.0146484375
-0.0146484375
0.0087890625
0.005859375
0.0732421875
0.0908203125
0.0908203125
0.0322265625
-0.0029296875
-0.03515625
-0.0791015625
-0.0791015625
-0.0673828125
-0.046875
-0.046875
-0.0380859375
-0.0205078125
-0.052734375
-0.0966796875
0.287109375
0.9404296875
1.072265625
0.1494140625
-0.1669921875
-0.234375
-0.19921875
-0.2021484375
-0.1875
-0.1669921875
-0.1435546875
-0.123046875
-0.1083984375
-0.09375
-0.0732421875
-0.046875
-0.0263671875
-0.01171875
0
0.029296875
0.0498046875
0.0791015625
0.10546875
0.1376953125
0.181640625
0.2109375
0.2314453125
0.234375
0.22265625
0.1669921875
0.0703125
-0.046875
-0.1640625
-0.24609375
-0.2900390625
-0.3017578125
-0.29296875
-0.2783203125
-0.240234375
-0.2109375
-0.1845703125
-0.1552734375
-0.12890625
-0.111328125
-0.0908203125
-0.076171875
-0.0673828125
-0.0673828125
-0.046875
-0.046875
-0.052734375
-0.046875
-0.0380859375
-0.0380859375
-0.046875
-0.0322265625
-0.0263671875
-0.0234375
-0.0205078125
-0.0234375
-0.017578125
-0.01171875
-0.0087890625
-0.005859375
-0.005859375
0.0732421875
0.0849609375
0.0908203125
0.041015625
0.005859375
-0.0263671875
-0.0615234375
-0.05859375
-0.052734375
-0.0380859375
-0.029296875
-0.017578125
-0.01171875
-0.0380859375
-0.0615234375
0.3662109375
1.013671875
0.9609375
0.1494140625
-0.140625
-0.24609375
-0.216796875
-0.2021484375
-0.1904296875
-0.17578125
-0.146484375
-0.12890625
-0.10546875
-0.087890625
-0.0732421875
-0.052734375
-0.0234375
-0.0146484375
0.0029296875
0.0322265625
0.0556640625
0.0791015625
0.10546875
0.140625
0.169921875
0.19921875
0.2138671875
0.2080078125
0.2021484375
0.15234375
0.064453125
-0.05859375
-0.1669921875
-0.2431640625
-0.287109375
-0.2900390625
-0.29296875
-0.2724609375
-0.2490234375
-0.2080078125
-0.1787109375
-0.140625
-0.1201171875
-0.1142578125
-0.087890625
-0.076171875
-0.0673828125
-0.0615234375
-0.05859375
-0.0556640625
-0.052734375
-0.052734375
-0.05859375
-0.046875
-0.0439453125
-0.0439453125
-0.0380859375
-0.029296875
-0.029296875
-0.029296875
-0.0205078125
-0.0205078125
0.0263671875
0.0673828125
0.0908203125
0.0673828125
0
-0.0234375
-0.064453125
-0.087890625
-0.076171875
-0.0703125
-0.05859375
-0.0498046875
-0.0439453125
-0.0322265625
-0.09375
-0.0322265625
0.4921875
1.1279296875
0.8173828125
0
-0.2373046875
-0.2373046875
-0.216796875
-0.2109375
-0.193359375
-0.17578125
-0.1552734375
-0.1318359375
-0.10546875
-0.09375
-0.0732421875
-0.046875
-0.0263671875
-0.01171875
0.0087890625
0.0380859375
0.0556640625
0.0849609375
0.1201171875
0.15234375
0.1875
0.2255859375
0.2373046875
0.2314453125
0.205078125
0.140625
0.0234375
-0.099609375
-0.19921875
-0.263671875
-0.2900390625
-0.3017578125
-0.29296875
-0.2607421875
-0.240234375
-0.2080078125
-0.169921875
-0.1376953125
-0.1142578125
-0.09375
-0.0849609375
-0.0673828125
-0.0673828125
-0.0615234375
-0.0556640625
-0.0556640625
-0.046875
-0.052734375
-0.046875
-0.0439453125
-0.0380859375
-0.029296875
-0.03515625
-0.0263671875
-0.0234375
-0.017578125
-0.0146484375
-0.01171875
0.005859375
0.01171875
0.0791015625
0.09375
0.1025390625
0.0380859375
0
-0.0234375
-0.0703125
-0.0673828125
-0.052734375
-0.0498046875
-0.0380859375
-0.0263671875
-0.0146484375
-0.0439453125
-0.087890625
0.3076171875
0.9697265625
1.06640625
0.1435546875
-0.1875
-0.24609375
-0.2138671875
-0.205078125
-0.193359375
-0.169921875
-0.1494140625
-0.12890625
-0.10546875
-0.087890625
-0.064453125
-0.046875
-0.0234375
-0.0087890625
0.01171875
0.03515625
0.0556640625
0.087890625
0.1142578125
0.1494140625
0.1904296875
0.2197265625
0.240234375
0.24609375
0.228515625
0.1669921875
0.064453125
-0.064453125
-0.169921875
-0.2490234375
-0.2958984375
-0.310546875
-0.3046875
-0.2841796875
-0.2548828125
-0.234375
-0.193359375
-0.1611328125
-0.1318359375
-0.10546875
-0.0908203125
-0.076171875
-0.05859375
-0.05859375
-0.0556640625
-0.052734375
-0.0498046875
-0.046875
-0.052734375
-0.046875
-0.03515625
-0.0380859375
-0.03515625
-0.029296875
-0.0234375
-0.0234375
-0.0234375
-0.0146484375
-0.0146484375
-0.01171875
-0.0087890625
0.0087890625
-0.0029296875
0.064453125
0.0908203125
0.1025390625
0.052734375
0.005859375
-0.01171875
-0.0673828125
-0.0673828125
-0.052734375
-0.046875
-0.0380859375
-0.03515625
-0.017578125
-0.0234375
-0.099609375
0.169921875
0.7646484375
1.189453125
0.416015625
-0.1025390625
-0.2490234375
-0.2021484375
-0.19921875
-0.1962890625
-0.181640625
-0.158203125
-0.1435546875
-0.1318359375
-0.111328125
-0.076171875
-0.05859375
-0.0380859375
-0.0087890625
0.0087890625
0.017578125
0.041015625
0.064453125
0.10546875
0.140625
0.169921875
0.2021484375
0.2431640625
0.2490234375
0.2373046875
0.1875
0.111328125
-0.01171875
-0.146484375
-0.234375
-0.2900390625
-0.3076171875
-0.3134765625
-0.2841796875
-0.263671875
-0.234375
-0.1962890625
-0.1611328125
-0.1376953125
-0.1142578125
-0.09375
-0.076171875
-0.0732421875
-0.0498046875
-0.0498046875
-0.052734375
-0.046875
-0.0439453125
-0.046875
-0.0380859375
-0.03515625
-0.0322265625
-0.03515625
-0.029296875
-0.029296875
-0.0234375
-0.0234375
-0.0205078125
-0.01171875
-0.0087890625
-0.005859375
-0.0087890625
0.0556640625
0.0673828125
0.08203125
0.03515625
0.0029296875
-0.0146484375
-0.05859375
-0.0615234375
-0.0498046875
-0.046875
-0.0380859375
-0.0263671875
-0.01171875
-0.017578125
-0.0849609375
0.2548828125
0.8876953125
1.1103515625
0.2841796875
-0.1083984375
-0.251953125
-0.22265625
-0.2021484375
-0.193359375
-0.17578125
-0.1494140625
-0.1318359375
-0.1201171875
-0.0908203125
-0.0791015625
-0.0615234375
-0.0439453125
-0.0234375
0
0.0146484375
0.0322265625
0.05859375
0.09375
0.12890625
0.1552734375
0.193359375
0.2109375
0.216796875
0.2080078125
0.17578125
0.0849609375
-0.0380859375
-0.15234375
-0.2431640625
-0.2783203125
-0.3017578125
-0.2958984375
-0.2841796875
-0.2548828125
-0.22265625
-0.181640625
-0.1552734375
-0.123046875
-0.1083984375
-0.0849609375
-0.076171875
-0.0732421875
-0.064453125
-0.0673828125
-0.0615234375
-0.052734375
-0.0498046875
-0.0498046875
-0.041015625
-0.0322265625
-0.0380859375
-0.03515625
-0.03515625
-0.0263671875
-0.0234375
-0.0263671875
-0.0146484375
-0.017578125
-0.01171875
-0.005859375
-0.005859375
0.0322265625
0.0908203125
0.0966796875
0.064453125
0.01171875
-0.01171875
-0.052734375
-0.076171875
-0.0673828125
-0.05859375
-0.052734375
-0.0439453125
-0.0322265625
-0.0205078125
-0.09375
0.0146484375
0.55078125
1.166015625
0.755859375
-0.0263671875
-0.2431640625
-0.2314453125
-0.2138671875
-0.2021484375
-0.1845703125
-0.1728515625
-0.1552734375
-0.1376953125
-0.1083984375
-0.0908203125
-0.0703125
-0.0439453125
-0.0263671875
-0.01171875
0.01171875
0.03515625
0.064453125
0.0849609375
0.1142578125
0.1640625
0.1962890625
0.22265625
0.24609375
0.2373046875
0.2138671875
0.146484375
0.0234375
-0.0966796875
-0.205078125
-0.2724609375
-0.3076171875
-0.310546875
-0.2958984375
-0.28125
-0.251953125
-0.216796875
-0.1845703125
-0.1552734375
-0.1259765625
-0.10546875
-0.08203125
-0.0732421875
-0.0673828125
-0.0556640625
-0.0556640625
-0.05859375
-0.046875
-0.046875
-0.0439453125
-0.046875
-0.0380859375
-0.0380859375
-0.0322265625
-0.0263671875
-0.0205078125
-0.0263671875
-0.0205078125
-0.017578125
-0.01171875
-0.01171875
-0.005859375
-0.0146484375
0.01171875
0.01171875
0.08203125
0.0908203125
0.0966796875
0.041015625
0.005859375
-0.0234375
-0.0673828125
-0.064453125
-0.0498046875
-0.0439453125
-0.0380859375
-0.0234375
-0.01171875
-0.0263671875
-0.09375
0.26953125
0.9111328125
1.107421875
0.2080078125
-0.158203125
-0.234375
-0.2109375
-0.2080078125
-0.1875
-0.169921875
-0.15234375
-0.1318359375
-0.10546875
-0.0908203125
-0.0791015625
-0.0498046875
-0.03515625
-0.017578125
0.005859375
0.029296875
0.0556640625
0.08203125
0.1083984375
0.140625
0.17578125
0.2197265625
0.2431640625
0.2431640625
0.2373046875
0.1962890625
0.099609375
-0.0380859375
-0.1611328125
-0.2431640625
-0.3017578125
-0.31640625
-0.3046875
-0.2900390625
-0.263671875
-0.234375
-0.2080078125
-0.1787109375
-0.146484375
-0.1201171875
-0.10546875
-0.0908203125
-0.0703125
-0.05859375
-0.05859375
-0.0556640625
-0.0556640625
-0.052734375
-0.046875
-0.0439453125
-0.0380859375
-0.0439453125
-0.0263671875
-0.0263671875
-0.0205078125
-0.0263671875
-0.0234375
-0.017578125
-0.01171875
-0.0146484375
-0.01171875
-0.01171875
-0.0029296875
0.0029296875
0.0234375
0.0849609375
0.0966796875
0.0673828125
0.017578125
-0.005859375
-0.0498046875
-0.0673828125
-0.05859375
-0.041015625
-0.046875
-0.0263671875
-0.0263671875
-0.0234375
-0.0966796875
0.052734375
0.609375
1.1689453125
0.6650390625
-0.0234375
-0.2578125
-0.234375
-0.205078125
-0.2021484375
-0.1845703125
-0.1640625
-0.1435546875
-0.1259765625
-0.09375
-0.0732421875
-0.0615234375
-0.046875
-0.0234375
0.0029296875
0.0263671875
0.03515625
0.0615234375
0.087890625
0.111328125
0.1494140625
0.1875
0.22265625
0.228515625
0.228515625
0.205078125
0.1376953125
0.0263671875
-0.09375
-0.2109375
-0.275390625
-0.2958984375
-0.3046875
-0.3017578125
-0.2724609375
-0.2373046875
-0.2080078125
-0.181640625
-0.1376953125
-0.1171875
-0.099609375
-0.0908203125
-0.0615234375
-0.052734375
-0.0498046875
-0.0556640625
-0.052734375
-0.052734375
-0.0498046875
-0.0380859375
-0.041015625
-0.03515625
-0.0322265625
-0.029296875
-0.0234375
-0.0234375
-0.0234375
-0.0205078125
-0.01171875
-0.017578125
-0.005859375
0.0029296875
0.0322265625
0.08203125
0.1025390625
0.0615234375
0.0087890625
-0.01171875
-0.0556640625
-0.076171875
-0.0556640625
-0.0556640625
-0.046875
-0.03515625
-0.0263671875
-0.0146484375
-0.099609375
0.046875
0.6064453125
1.177734375
0.673828125
-0.0380859375
-0.24609375
-0.2373046875
-0.2138671875
-0.2109375
-0.1904296875
-0.17578125
-0.146484375
-0.1318359375
-0.111328125
-0.0849609375
-0.0673828125
-0.0439453125
-0.0263671875
-0.0029296875
0.0146484375
0.029296875
0.0556640625
0.08203125
0.1142578125
0.15234375
0.1845703125
0.2109375
0.228515625
0.2314453125
0.1962890625
0.1376953125
0.029296875
-0.099609375
-0.2021484375
-0.263671875
-0.3046875
-0.3046875
-0.29296875
-0.26953125
-0.234375
-0.19921875
-0.169921875
-0.146484375
-0.123046875
-0.0966796875
-0.0849609375
-0.0732421875
-0.064453125
-0.05859375
-0.0498046875
-0.0498046875
-0.046875
-0.052734375
-0.046875
-0.046875
-0.041015625
-0.03515625
-0.029296875
-0.0263671875
-0.0234375
-0.0205078125
-0.0205078125
-0.0205078125
-0.01171875
-0.01171875
0
-0.005859375
0.0732421875
0.09375
0.087890625
0.029296875
-0.017578125
-0.0322265625
-0.0732421875
-0.0703125
-0.052734375
-0.052734375
-0.0380859375
-0.0322265625
-0.0234375
-0.0498046875
-0.0849609375
0.3515625
1.0078125
1.0107421875
0.111328125
-0.193359375
-0.24609375
-0.2197265625
-0.2109375
-0.1875
-0.1669921875
-0.1494140625
-0.12890625
-0.1083984375
-0.087890625
-0.0673828125
-0.0439453125
-0.0322265625
-0.01171875
0.0087890625
0.0263671875
0.046875
0.08203125
0.1083984375
0.146484375
0.181640625
0.216796875
0.2373046875
0.24609375
0.228515625
0.17578125
0.0791015625
-0.0439453125
-0.1669921875
-0.2548828125
-0.2958984375
-0.310546875
-0.3076171875
-0.29296875
-0.251953125
-0.216796875
-0.19921875
-0.1640625
-0.1318359375
-0.1142578125
-0.099609375
-0.0732421875
-0.0673828125
-0.0673828125
-0.0615234375
-0.052734375
-0.0556640625
-0.0498046875
-0.0439453125
-0.0439453125
-0.0380859375
-0.0322265625
-0.0263671875
-0.0234375
-0.017578125
-0.0146484375
-0.01171875
-0.0087890625
-0.0029296875
-0.0087890625
0.0029296875
0.0029296875
0.064453125
0.087890625
0.099609375
0.0498046875
0.0029296875
-0.0087890625
-0.0703125
-0.0732421875
-0.05859375
-0.0498046875
-0.046875
-0.03515625
-0.0234375
-0.029296875
-0.1025390625
0.22265625
0.837890625
1.16015625
0.2900390625
-0.1318359375
-0.240234375
-0.2080078125
-0.2021484375
-0.1845703125
-0.1669921875
-0.15234375
-0.1318359375
-0.1142578125
-0.0849609375
-0.0673828125
-0.0498046875
-0.029296875
-0.0146484375
0.0029296875
0.0263671875
0.046875
0.0703125
0.1083984375
0.1435546875
0.169921875
0.2138671875
0.2373046875
0.251953125
0.240234375
0.19921875
0.1025390625
-0.0263671875
-0.1435546875
-0.2314453125
-0.287109375
-0.3076171875
-0.310546875
-0.29296875
-0.2666015625
-0.240234375
-0.1962890625
-0.169921875
-0.146484375
-0.1201171875
-0.10546875
-0.09375
-0.0732421875
-0.064453125
-0.064453125
-0.05859375
-0.05859375
-0.052734375
-0.046875
-0.046875
-0.046875
-0.041015625
-0.03515625
-0.0263671875
-0.029296875
-0.0146484375
-0.017578125
-0.0205078125
-0.017578125
-0.005859375
-0.01171875
0
0.0087890625
0.0849609375
0.09375
0.0849609375
0.0263671875
0
-0.0439453125
-0.0791015625
-0.05859375
-0.052734375
-0.0439453125
-0.03515625
-0.0322265625
-0.0205078125
-0.0849609375
-0.029296875
0.4951171875
1.125
0.8291015625
0.0087890625
-0.234375
-0.2314453125
-0.2138671875
-0.2021484375
-0.1845703125
-0.169921875
-0.146484375
-0.1259765625
-0.1083984375
-0.0966796875
-0.0732421875
-0.0439453125
-0.017578125
0
0.0146484375
0.029296875
0.05859375
0.0732421875
0.1171875
0.1494140625
0.181640625
0.2197265625
0.240234375
0.2314453125
0.2109375
0.15234375
0.03515625
-0.09375
-0.19921875
-0.2666015625
-0.3017578125
-0.3134765625
-0.298828125
-0.2724609375
-0.251953125
-0.216796875
-0.1845703125
-0.1552734375
-0.12890625
-0.111328125
-0.09375
-0.076171875
-0.0615234375
-0.05859375
-0.0498046875
-0.052734375
-0.046875
-0.041015625
-0.03515625
-0.03515625
-0.029296875
-0.0322265625
-0.0263671875
-0.017578125
-0.0146484375
-0.0205078125
-0.01171875
-0.0087890625
0.0205078125
0.08203125
0.0908203125
0.0732421875
0.017578125
0
-0.0439453125
-0.064453125
-0.0732421875
-0.0439453125
-0.03515625
-0.029296875
-0.0234375
-0.0146484375
-0.0703125
-0.005859375
0.5478515625
1.166015625
0.76171875
0.0322265625
-0.205078125
-0.251953125
-0.216796875
-0.205078125
-0.1875
-0.169921875
-0.146484375
-0.1259765625
-0.1083984375
-0.0908203125
-0.0673828125
-0.0498046875
-0.0263671875
-0.01171875
0.0205078125
0.0322265625
0.05859375
0.08203125
0.1083984375
0.1435546875
0.181640625
0.2080078125
0.22265625
0.2197265625
0.1962890625
0.140625
0.0205078125
-0.1025390625
-0.1962890625
-0.2607421875
-0.29296875
-0.3076171875
-0.2841796875
-0.2666015625
-0.234375
-0.2080078125
-0.1669921875
-0.1318359375
-0.1142578125
-0.09375
-0.076171875
-0.0732421875
-0.05859375
-0.05859375
-0.0615234375
-0.05859375
-0.0498046875
-0.052734375
-0.0498046875
-0.041015625
-0.0322265625
-0.03515625
-0.03515625
-0.0263671875
-0.0322265625
-0.0234375
-0.005859375
-0.0087890625
0.0556640625
0.076171875
0.08203125
0.0322265625
-0.0146484375
-0.029296875
-0.076171875
-0.08203125
-0.0673828125
-0.0673828125
-0.052734375
-0.0439453125
-0.0263671875
-0.0322265625
-0.1083984375
0.2197265625
0.84375
1.1865234375
0.3369140625
-0.12890625
-0.251953125
-0.2197265625
-0.216796875
-0.2021484375
-0.181640625
-0.1640625
-0.1376953125
-0.1142578125
-0.099609375
-0.0791015625
-0.0556640625
-0.03515625
-0.017578125
0.0029296875
0.0205078125
0.046875
0.076171875
0.1083984375
0.1435546875
0.17578125
0.216796875
0.234375
0.240234375
0.234375
0.1845703125
0.08203125
-0.0439453125
-0.15234375
-0.2431640625
-0.298828125
-0.3134765625
-0.3017578125
-0.2841796875
-0.2607421875
-0.2255859375
-0.193359375
-0.169921875
-0.1376953125
-0.111328125
-0.0966796875
-0.08203125
-0.076171875
-0.052734375
-0.0556640625
-0.052734375
-0.046875
-0.046875
-0.0439453125
-0.041015625
-0.0439453125
-0.03515625
-0.029296875
-0.0263671875
-0.0234375
-0.0205078125
-0.0146484375
-0.005859375
-0.0029296875
0.064453125
0.08203125
0.099609375
0.046875
0
-0.0234375
-0.0703125
-0.0732421875
-0.064453125
-0.05859375
-0.041015625
-0.03515625
-0.029296875
-0.0234375
-0.10546875
0.193359375
0.826171875
1.1953125
0.3427734375
-0.123046875
-0.2490234375
-0.2138671875
-0.2080078125
-0.1904296875
-0.169921875
-0.158203125
-0.134765625
-0.1142578125
-0.0908203125
-0.064453125
-0.052734375
-0.0322265625
-0.01171875
0.005859375
0.0234375
0.0498046875
0.08203125
0.1142578125
0.1435546875
0.1787109375
0.22265625
0.2431640625
0.2548828125
0.2373046875
0.1962890625
0.099609375
-0.03515625
-0.1611328125
-0.251953125
-0.2958984375
-0.310546875
-0.3046875
-0.2841796875
-0.2578125
-0.228515625
-0.1962890625
-0.169921875
-0.1376953125
-0.111328125
-0.0966796875
-0.076171875
-0.0615234375
-0.05859375
-0.0556640625
-0.041015625
-0.0439453125
-0.0498046875
-0.0439453125
-0.0380859375
-0.029296875
-0.03515625
-0.0322265625
-0.0234375
-0.0234375
-0.0205078125
-0.01171875
-0.005859375
-0.0029296875
-0.005859375
0.0703125
0.0849609375
0.0908203125
0.0380859375
-0.01171875
-0.03515625
-0.076171875
-0.0732421875
-0.05859375
-0.0439453125
-0.0439453125
-0.029296875
-0.0205078125
-0.03515625
-0.0966796875
0.2841796875
0.943359375
1.095703125
0.205078125
-0.1611328125
-0.2490234375
-0.216796875
-0.216796875
-0.19921875
-0.17578125
-0.1552734375
-0.1376953125
-0.1171875
-0.099609375
-0.0732421875
-0.0498046875
-0.0380859375
-0.017578125
0.0029296875
0.0205078125
0.046875
0.0791015625
0.1171875
0.1494140625
0.1845703125
0.228515625
0.234375
0.240234375
0.22265625
0.1728515625
0.0732421875
-0.0615234375
-0.1728515625
-0.2548828125
-0.3017578125
-0.3193359375
-0.3134765625
-0.287109375
-0.2548828125
-0.234375
-0.193359375
-0.1611328125
-0.1376953125
-0.1171875
-0.09375
-0.0791015625
-0.05859375
-0.0556640625
-0.0498046875
-0.046875
-0.046875
-0.041015625
-0.0380859375
-0.041015625
-0.03515625
-0.0234375
-0.029296875
-0.0234375
-0.0263671875
-0.017578125
-0.0146484375
-0.0029296875
-0.01171875
0.0556640625
0.0791015625
0.0908203125
0.0439453125
0.0087890625
-0.0087890625
-0.0615234375
-0.064453125
-0.0556640625
-0.0498046875
-0.046875
-0.03515625
-0.029296875
-0.0205078125
-0.1083984375
0.169921875
0.7880859375
1.1806640625
0.421875
-0.09375
-0.2724609375
-0.240234375
-0.2138671875
-0.205078125
-0.1875
-0.1669921875
-0.1435546875
-0.123046875
-0.1025390625
-0.076171875
-0.0615234375
-0.0439453125
-0.0234375
-0.0029296875
0.0087890625
0.029296875
0.0556640625
0.0908203125
0.123046875
0.1611328125
0.1962890625
0.2109375
0.2197265625
0.2109375
0.1728515625
0.087890625
-0.0380859375
-0.15234375
-0.234375
-0.2841796875
-0.3046875
-0.29296875
-0.28125
-0.2607421875
-0.228515625
-0.193359375
-0.158203125
-0.1259765625
-0.1083984375
-0.0908203125
-0.08203125
-0.0703125
-0.05859375
-0.064453125
-0.0556640625
-0.0498046875
-0.0498046875
-0.0498046875
-0.046875
-0.046875
-0.041015625
-0.041015625
-0.0322265625
-0.0263671875
-0.0234375
-0.0234375
-0.0205078125
-0.017578125
-0.0029296875
0.0234375
0.076171875
0.09375
0.0732421875
0.017578125
-0.005859375
-0.052734375
-0.0791015625
-0.0703125
-0.05859375
-0.052734375
-0.0439453125
-0.029296875
-0.0087890625
-0.087890625
-0.01171875
0.515625
1.1455078125
0.8232421875
0.005859375
-0.24609375
-0.2314453125
-0.205078125
-0.2080078125
-0.1845703125
-0.1669921875
-0.1435546875
-0.123046875
-0.099609375
-0.08203125
-0.05859375
-0.03515625
-0.0234375
0.0029296875
0.0263671875
0.041015625
0.05859375
0.0966796875
0.12890625
0.1640625
0.2109375
0.24609375
0.2607421875
0.2548828125
0.228515625
0.1640625
0.0439453125
-0.0849609375
-0.2021484375
-0.2607421875
-0.29296875
-0.3017578125
-0.2900390625
-0.263671875
-0.2314453125
-0.2021484375
-0.1787109375
-0.1552734375
-0.123046875
-0.0966796875
-0.08203125
-0.0732421875
-0.0615234375
-0.05859375
-0.0439453125
-0.0556640625
-0.041015625
-0.046875
-0.0439453125
-0.0439453125
-0.0439453125
-0.0322265625
-0.0322265625
-0.03515625
-0.0263671875
-0.0263671875
-0.01171875
-0.0087890625
0.0498046875
0.0703125
0.0966796875
0.05859375
0
-0.0146484375
-0.0732421875
-0.0732421875
-0.05859375
-0.0498046875
-0.046875
-0.029296875
-0.0234375
-0.0234375
-0.1083984375
0.1025390625
0.6796875
1.177734375
0.52734375
-0.08203125
-0.24609375
-0.2138671875
-0.2021484375
-0.1962890625
-0.1787109375
-0.1552734375
-0.1376953125
-0.1142578125
-0.0849609375
-0.0732421875
-0.052734375
-0.041015625
-0.01171875
0.005859375
0.0263671875
0.046875
0.0703125
0.111328125
0.1435546875
0.181640625
0.216796875
0.240234375
0.2607421875
0.251953125
0.216796875
0.1171875
-0.0146484375
-0.1435546875
-0.228515625
-0.28125
-0.3017578125
-0.3076171875
-0.287109375
-0.2607421875
-0.24609375
-0.216796875
-0.1787109375
-0.1611328125
-0.1376953125
-0.1142578125
-0.087890625
-0.0732421875
-0.0703125
-0.05859375
-0.052734375
-0.0498046875
-0.041015625
-0.041015625
-0.041015625
-0.03515625
-0.0380859375
-0.0380859375
-0.0380859375
-0.0263671875
-0.0146484375
-0.005859375
0.0146484375
0.0791015625
0.0908203125
0.09375
0.0205078125
0
-0.0498046875
-0.0849609375
-0.0791015625
-0.0673828125
-0.05859375
-0.052734375
-0.0380859375
-0.0263671875
-0.064453125
-0.0791015625
0.3779296875
1.03125
0.9375
0.0673828125
-0.2080078125
-0.2255859375
-0.205078125
-0.1962890625
-0.1787109375
-0.1640625
-0.140625
-0.123046875
-0.1025390625
-0.076171875
-0.05859375
-0.0498046875
-0.03515625
-0.005859375
0.0087890625
0.03515625
0.05859375
0.08203125
0.1171875
0.1669921875
0.19921875
0.2314453125
0.2431640625
0.2490234375
0.228515625
0.158203125
0.0380859375
-0.08203125
-0.1962890625
-0.263671875
-0.3017578125
-0.310546875
-0.2900390625
-0.2666015625
-0.24609375
-0.216796875
-0.1787109375
-0.1611328125
-0.1318359375
-0.1083984375
-0.0849609375
-0.076171875
-0.0673828125
-0.05859375
-0.052734375
-0.0498046875
-0.046875
-0.0498046875
-0.046875
-0.0439453125
-0.0380859375
-0.0322265625
-0.0205078125
-0.0205078125
0.046875
0.0732421875
0.0966796875
0.0615234375
0
-0.0263671875
-0.08203125
-0.09375
-0.0791015625
-0.0615234375
-0.052734375
-0.0439453125
-0.03515625
-0.0234375
-0.1083984375
0.1083984375
0.71484375
1.177734375
0.4423828125
-0.1025390625
-0.24609375
-0.2109375
-0.2021484375
-0.193359375
-0.181640625
-0.158203125
-0.1318359375
-0.111328125
-0.09375
-0.0673828125
-0.046875
-0.029296875
-0.01171875
0.005859375
0.0322265625
0.0556640625
0.076171875
0.10546875
0.1435546875
0.1787109375
0.2109375
0.2314453125
0.240234375
0.2197265625
0.181640625
0.08203125
-0.0380859375
-0.1494140625
-0.228515625
-0.28125
-0.2958984375
-0.29296875
-0.26953125
-0.2373046875
-0.2109375
-0.181640625
-0.1435546875
-0.1171875
-0.099609375
-0.087890625
-0.076171875
-0.05859375
-0.0556640625
-0.052734375
-0.052734375
-0.0498046875
-0.046875
-0.046875
-0.046875
-0.0380859375
-0.0263671875
0.046875
0.0703125
0.08203125
0.046875
-0.0234375
-0.05859375
-0.099609375
-0.1025390625
-0.0908203125
-0.08203125
-0.0615234375
-0.046875
-0.041015625
-0.0380859375
-0.123046875
0.1376953125
0.73828125
1.166015625
0.38671875
-0.1171875
-0.240234375
-0.2080078125
-0.2021484375
-0.1904296875
-0.17578125
-0.1552734375
-0.12890625
-0.10546875
-0.0908203125
-0.0732421875
-0.0556640625
-0.0263671875
-0.01171875
0.0087890625
0.029296875
0.064453125
0.08203125
0.1083984375
0.134765625
0.1669921875
0.2021484375
0.22265625
0.2138671875
0.19921875
0.1640625
0.064453125
-0.0556640625
-0.1611328125
-0.228515625
-0.2666015625
-0.2783203125
-0.2724609375
-0.240234375
-0.22265625
-0.1875
-0.15234375
-0.1318359375
-0.10546875
-0.087890625
-0.0849609375
-0.0673828125
-0.0703125
-0.0673828125
-0.0556640625
-0.052734375
-0.05859375
-0.0498046875
-0.041015625
-0.041015625
-0.029296875
-0.0234375
0.046875
0.0673828125
0.087890625
0.052734375
-0.0029296875
-0.0498046875
-0.09375
-0.0849609375
-0.08203125
-0.0673828125
-0.0615234375
-0.046875
-0.0439453125
-0.029296875
-0.1171875
0.12890625
0.7353515625
1.16015625
0.4482421875
-0.08203125
-0.24609375
-0.2314453125
-0.193359375
-0.1845703125
-0.1845703125
-0.1435546875
-0.1318359375
-0.1083984375
-0.0849609375
-0.0673828125
-0.046875
-0.0234375
-0.0146484375
0.01171875
0.0439453125
0.05859375
0.0791015625
0.0966796875
0.12890625
0.1640625
0.193359375
0.205078125
0.2080078125
0.205078125
0.1611328125
0.064453125
-0.046875
-0.15234375
-0.22265625
-0.26953125
-0.28125
-0.2724609375
-0.2548828125
-0.2255859375
-0.193359375
-0.1669921875
-0.1376953125
-0.1201171875
-0.099609375
-0.087890625
-0.0732421875
-0.0732421875
-0.0703125
-0.0615234375
-0.0615234375
-0.05859375
-0.05859375
-0.0556640625
-0.046875
-0.03515625
-0.0146484375
0.041015625
0.08203125
0.076171875
0.01171875
-0.03515625
-0.076171875
-0.10546875
-0.0908203125
-0.087890625
-0.0791015625
-0.064453125
-0.05859375
-0.0498046875
-0.052734375
-0.1142578125
0.275390625
0.9287109375
1.01953125
0.158203125
-0.1435546875
-0.24609375
-0.2109375
-0.193359375
-0.1875
-0.181640625
-0.15234375
-0.1318359375
-0.111328125
-0.0849609375
-0.0673828125
-0.046875
-0.0234375
-0.0029296875
0.017578125
0.03515625
0.0556640625
0.0849609375
0.111328125
0.140625
0.17578125
0.1962890625
0.2080078125
0.2109375
0.1904296875
0.134765625
0.0263671875
-0.0849609375
-0.1787109375
-0.2373046875
-0.26953125
-0.2724609375
-0.2666015625
-0.240234375
-0.205078125
-0.1728515625
-0.1435546875
-0.1259765625
-0.10546875
-0.0849609375
-0.076171875
-0.0673828125
-0.064453125
-0.05859375
-0.05859375
-0.0498046875
-0.046875
-0.0498046875
-0.046875
-0.0380859375
-0.03515625
-0.03515625
-0.0205078125
-0.0205078125
0.0439453125
0.0703125
0.099609375
0.0498046875
-0.005859375
-0.03515625
-0.08203125
-0.09375
-0.0791015625
-0.0703125
-0.0615234375
-0.052734375
-0.0380859375
-0.0322265625
-0.111328125
0.041015625
0.609375
1.18359375
0.65625
-0.0498046875
-0.24609375
-0.216796875
-0.2080078125
-0.1904296875
-0.1787109375
-0.1611328125
-0.1435546875
-0.1171875
-0.09375
-0.076171875
-0.052734375
-0.029296875
-0.0146484375
0.017578125
0.0380859375
0.0556640625
0.0791015625
0.1025390625
0.134765625
0.169921875
0.1962890625
0.2138671875
0.2138671875
0.2197265625
0.181640625
0.09375
-0.0205078125
-0.1259765625
-0.2080078125
-0.2607421875
-0.28125
-0.2783203125
-0.2548828125
-0.2314453125
-0.19921875
-0.169921875
-0.140625
-0.1171875
-0.1025390625
-0.0849609375
-0.076171875
-0.0703125
-0.0673828125
-0.0556640625
-0.052734375
-0.05859375
-0.0439453125
-0.0439453125
-0.0380859375
-0.0380859375
-0.041015625
-0.0322265625
-0.0234375
-0.0146484375
-0.0087890625
0.046875
0.076171875
0.10546875
0.0703125
0.017578125
-0.01171875
-0.0732421875
-0.0849609375
-0.0732421875
-0.0673828125
-0.0615234375
-0.0556640625
-0.0439453125
-0.0234375
-0.10546875
-0.0205078125
0.509765625
1.1396484375
0.8056640625
-0.0029296875
-0.2314453125
-0.2138671875
-0.193359375
-0.193359375
-0.1787109375
-0.1611328125
-0.134765625
-0.1201171875
-0.0966796875
-0.0791015625
-0.0498046875
-0.03515625
-0.01171875
0.005859375
0.0205078125
0.0439453125
0.064453125
0.09375
0.123046875
0.158203125
0.1962890625
0.2197265625
0.2197265625
0.2109375
0.181640625
0.1083984375
0
-0.111328125
-0.19921875
-0.2578125
-0.28125
-0.287109375
-0.2724609375
-0.240234375
-0.2138671875
-0.181640625
-0.158203125
-0.134765625
-0.111328125
-0.0849609375
-0.0791015625
-0.0732421875
-0.064453125
-0.0673828125
-0.064453125
-0.0439453125
-0.046875
-0.0439453125
-0.0439453125
-0.0439453125
-0.03515625
-0.029296875
-0.0322265625
-0.0234375
-0.0234375
-0.017578125
-0.01171875
-0.0029296875
0.0439453125
0.0703125
0.10546875
0.0732421875
0.0029296875
-0.0234375
-0.0703125
-0.0703125
-0.0673828125
-0.05859375
-0.052734375
-0.0439453125
-0.029296875
-0.029296875
-0.1083984375
0.0703125
0.6533203125
1.1953125
0.62109375
-0.046875
-0.2578125
-0.240234375
-0.216796875
-0.2080078125
-0.1875
-0.1640625
-0.1435546875
-0.1201171875
-0.09375
-0.08203125
-0.05859375
-0.0380859375
-0.0146484375
0.005859375
0.0205078125
0.0556640625
0.0791015625
0.099609375
0.134765625
0.1640625
0.193359375
0.2197265625
0.228515625
0.2109375
0.169921875
0.0966796875
-0.0205078125
-0.12890625
-0.2080078125
-0.2607421875
-0.275390625
-0.28125
-0.26953125
-0.24609375
-0.205078125
-0.17578125
-0.146484375
-0.1201171875
-0.1025390625
-0.0908203125
-0.0732421875
-0.0615234375
-0.0556640625
-0.0556640625
-0.046875
-0.046875
-0.0439453125
-0.046875
-0.0498046875
-0.046875
-0.0439453125
-0.0380859375
-0.041015625
-0.029296875
-0.0322265625
-0.017578125
-0.01171875
0.041015625
0.0703125
0.099609375
0.0703125
0.005859375
-0.0087890625
-0.0732421875
-0.0849609375
-0.0732421875
-0.05859375
-0.0556640625
-0.052734375
-0.0380859375
-0.029296875
-0.1083984375
0.03515625
0.609375
1.18359375
0.6533203125
-0.0380859375
-0.240234375
-0.234375
-0.205078125
-0.19921875
-0.181640625
-0.1640625
-0.1435546875
-0.1142578125
-0.1025390625
-0.076171875
-0.0556640625
-0.0380859375
-0.0234375
0
0.0205078125
0.041015625
0.0673828125
0.1025390625
0.12890625
0.1611328125
0.1845703125
0.2138671875
0.2138671875
0.205078125
0.17578125
0.099609375
-0.017578125
-0.12890625
-0.2109375
-0.2578125
-0.2841796875
-0.2841796875
-0.263671875
-0.240234375
-0.2080078125
-0.1787109375
-0.158203125
-0.1259765625
-0.1025390625
-0.0791015625
-0.0732421875
-0.0703125
-0.0615234375
-0.05859375
-0.0615234375
-0.052734375
-0.05859375
-0.041015625
-0.046875
-0.0439453125
-0.0322265625
-0.03515625
-0.0234375
-0.0234375
-0.0234375
-0.017578125
-0.017578125
-0.0029296875
-0.0029296875
0.046875
0.0732421875
0.1025390625
0.0703125
0
-0.005859375
-0.064453125
-0.0849609375
-0.0615234375
-0.0556640625
-0.052734375
-0.0380859375
-0.029296875
-0.0205078125
-0.1083984375
0.0498046875
0.6181640625
1.1806640625
0.6328125
-0.0556640625
-0.251953125
-0.2197265625
-0.2080078125
-0.2021484375
-0.1875
-0.1669921875
-0.1435546875
-0.123046875
-0.09375
-0.0849609375
-0.05859375
-0.0380859375
-0.0234375
-0.0087890625
0.0205078125
0.0380859375
0.05859375
0.0966796875
0.1201171875
0.158203125
0.193359375
0.216796875
0.2314453125
0.22265625
0.181640625
0.10546875
-0.0146484375
-0.1318359375
-0.2255859375
-0.275390625
-0.2958984375
-0.2900390625
-0.2783203125
-0.2607421875
-0.2314453125
-0.1904296875
-0.1611328125
-0.134765625
-0.1083984375
-0.099609375
-0.0849609375
-0.064453125
-0.0615234375
-0.0556640625
-0.046875
-0.052734375
-0.046875
-0.03515625
-0.046875
-0.0380859375
-0.03515625
-0.0322265625
-0.0234375
-0.0234375
-0.0234375
-0.0205078125
-0.0205078125
-0.01171875
0.0029296875
-0.005859375
0.0703125
0.0849609375
0.111328125
0.041015625
-0.0029296875
-0.0205078125
-0.0703125
-0.076171875
-0.05859375
-0.0615234375
-0.0439453125
-0.03515625
-0.0234375
-0.0439453125
-0.111328125
0.2080078125
0.837890625
1.1396484375
0.29296875
-0.1318359375
-0.24609375
-0.2021484375
-0.19921875
-0.1875
-0.17578125
-0.15234375
-0.1376953125
-0.1142578125
-0.0966796875
-0.0703125
-0.0556640625
-0.029296875
-0.0146484375
0.0029296875
0.0234375
0.0439453125
0.076171875
0.0966796875
0.12890625
0.17578125
0.19921875
0.2138671875
0.2255859375
0.2138671875
0.1611328125
0.0703125
-0.05859375
-0.1669921875
-0.2490234375
-0.2783203125
-0.3076171875
-0.3017578125
-0.275390625
-0.24609375
-0.2197265625
-0.1845703125
-0.15234375
-0.1259765625
-0.1142578125
-0.0849609375
-0.05859375
-0.05859375
-0.0673828125
-0.0439453125
-0.0380859375
-0.046875
-0.041015625
-0.0439453125
-0.046875
-0.0263671875
-0.0322265625
-0.0322265625
-0.029296875
-0.017578125
-0.0234375
-0.0146484375
-0.0146484375
-0.0205078125
0
-0.01171875
0.029296875
0.0849609375
0.1142578125
0.0732421875
0.0205078125
0
-0.0498046875
-0.0673828125
-0.052734375
-0.0498046875
-0.03515625
-0.0234375
-0.017578125
-0.01171875
-0.0849609375
0.0439453125
0.6005859375
1.171875
0.6796875
0
-0.240234375
-0.24609375
-0.2197265625
-0.2021484375
-0.1787109375
-0.158203125
-0.140625
-0.111328125
-0.09375
-0.076171875
-0.0556640625
-0.0380859375
-0.017578125
0.0029296875
0.0234375
0.0322265625
0.0556640625
0.087890625
0.1142578125
0.1494140625
0.181640625
0.2080078125
0.2197265625
0.2080078125
0.1787109375
0.1142578125
0.01171875
-0.1171875
-0.2109375
-0.263671875
-0.2841796875
-0.3017578125
-0.29296875
-0.2607421875
-0.2255859375
-0.1875
-0.15234375
-0.140625
-0.10546875
-0.087890625
-0.087890625
-0.0703125
-0.064453125
-0.05859375
-0.0556640625
-0.0498046875
-0.05859375
-0.046875
-0.0439453125
-0.0439453125
-0.0322265625
-0.0322265625
-0.0380859375
-0.0322265625
-0.029296875
-0.0263671875
-0.0205078125
-0.0087890625
-0.01171875
0.052734375
0.0849609375
0.0908203125
0.046875
0
-0.0234375
-0.0732421875
-0.0791015625
-0.0703125
-0.0673828125
-0.052734375
-0.046875
-0.0380859375
-0.029296875
-0.1142578125
0.1494140625
0.76171875
1.21875
0.4541015625
-0.0966796875
-0.2490234375
-0.2109375
-0.2080078125
-0.1962890625
-0.17578125
-0.15234375
-0.140625
-0.123046875
-0.099609375
-0.0732421875
-0.0673828125
-0.0380859375
-0.01171875
0
0.017578125
0.041015625
0.0732421875
0.09375
0.1376953125
0.1787109375
0.2080078125
0.2197265625
0.2314453125
0.22265625
0.181640625
0.0849609375
-0.03515625
-0.140625
-0.234375
-0.2900390625
-0.3076171875
-0.3046875
-0.2841796875
-0.2607421875
-0.2255859375
-0.1962890625
-0.1640625
-0.140625
-0.1142578125
-0.09375
-0.0791015625
-0.0615234375
-0.05859375
-0.05859375
-0.0556640625
-0.05859375
-0.0556640625
-0.052734375
-0.046875
-0.046875
-0.0380859375
-0.03515625
-0.03515625
-0.0322265625
-0.0263671875
-0.0146484375
-0.0234375
-0.01171875
-0.005859375
-0.0029296875
0.0556640625
0.0791015625
0.10546875
0.052734375
-0.0029296875
-0.01171875
-0.064453125
-0.076171875
-0.064453125
-0.0498046875
-0.046875
-0.0380859375
-0.029296875
-0.0234375
-0.1083984375
0.134765625
0.73828125
1.1865234375
0.4482421875
-0.09375
-0.2431640625
-0.205078125
-0.2021484375
-0.1962890625
-0.1728515625
-0.1494140625
-0.1318359375
-0.1142578125
-0.09375
-0.064453125
-0.046875
-0.017578125
-0.01171875
0.0029296875
0.0263671875
0.0498046875
0.0791015625
0.10546875
0.1376953125
0.1728515625
0.2109375
0.234375
0.2431640625
0.2373046875
0.1875
0.1025390625
-0.03515625
-0.15234375
-0.2373046875
-0.29296875
-0.31640625
-0.3046875
-0.2958984375
-0.2724609375
-0.2490234375
-0.2021484375
-0.17578125
-0.1494140625
-0.12890625
-0.1025390625
-0.0966796875
-0.076171875
-0.0673828125
-0.0615234375
-0.0615234375
-0.0556640625
-0.046875
-0.052734375
-0.0380859375
-0.0380859375
-0.0439453125
-0.041015625
-0.0263671875
-0.0234375
-0.0380859375
-0.0263671875
-0.0205078125
-0.0087890625
-0.017578125
0.0087890625
0.0703125
0.0908203125
0.0791015625
0.0263671875
0.005859375
-0.0498046875
-0.0703125
-0.0615234375
-0.0556640625
-0.041015625
-0.041015625
-0.03515625
-0.0234375
-0.0732421875
0.0087890625
0.5390625
1.13671875
0.75
0.0234375
-0.240234375
-0.251953125
-0.2109375
-0.1962890625
-0.1875
-0.1611328125
-0.1318359375
-0.1171875
-0.099609375
-0.0791015625
-0.0615234375
-0.0322265625
-0.0146484375
0.0029296875
0.017578125
0.0380859375
0.0673828125
0.099609375
0.1259765625
0.158203125
0.193359375
0.22265625
0.2314453125
0.228515625
0.2021484375
0.1259765625
0.017578125
-0.10546875
-0.1904296875
-0.26953125
-0.2958984375
-0.3017578125
-0.2841796875
-0.263671875
-0.234375
-0.205078125
-0.1669921875
-0.1318359375
-0.1171875
-0.111328125
-0.076171875
-0.05859375
-0.064453125
-0.0556640625
-0.0498046875
-0.046875
-0.0439453125
-0.0380859375
-0.0439453125
-0.041015625
-0.029296875
-0.029296875
-0.029296875
-0.0322265625
-0.01171875
-0.005859375
0.05859375
0.076171875
0.0908203125
0.0439453125
0
-0.0234375
-0.076171875
-0.0732421875
-0.0556640625
-0.0556640625
-0.046875
-0.041015625
-0.029296875
-0.0205078125
-0.111328125
0.181640625
0.791015625
1.1806640625
0.4072265625
-0.0908203125
-0.2578125
-0.228515625
-0.2109375
-0.19921875
-0.1728515625
-0.158203125
-0.1376953125
-0.111328125
-0.09375
-0.0791015625
-0.0498046875
-0.029296875
-0.01171875
0.0029296875
0.0234375
0.046875
0.0791015625
0.1025390625
0.134765625
0.1669921875
0.205078125
0.22265625
0.22265625
0.2080078125
0.1611328125
0.0673828125
-0.052734375
-0.1640625
-0.240234375
-0.28125
-0.3017578125
-0.298828125
-0.2724609375
-0.251953125
-0.2138671875
-0.1845703125
-0.1552734375
-0.1259765625
-0.099609375
-0.0908203125
-0.0732421875
-0.0732421875
-0.05859375
-0.052734375
-0.046875
-0.052734375
-0.0556640625
-0.0498046875
-0.041015625
-0.0380859375
-0.041015625
-0.0322265625
-0.0380859375
-0.0322265625
-0.0205078125
-0.0234375
-0.017578125
-0.0087890625
0.0556640625
0.08203125
0.0966796875
0.0498046875
-0.01171875
-0.0234375
-0.0732421875
-0.076171875
-0.064453125
-0.052734375
-0.052734375
-0.0439453125
-0.03515625
-0.0263671875
-0.1083984375
0.1611328125
0.7705078125
1.2041015625
0.404296875
-0.1083984375
-0.24609375
-0.2080078125
-0.2021484375
-0.1904296875
-0.17578125
-0.158203125
-0.1318359375
-0.1142578125
-0.0908203125
-0.0673828125
-0.046875
-0.0322265625
-0.01171875
0.0029296875
0.0322265625
0.052734375
0.0791015625
0.111328125
0.1435546875
0.193359375
0.2138671875
0.24609375
0.251953125
0.234375
0.1875
0.0908203125
-0.0380859375
-0.146484375
-0.234375
-0.28125
-0.3046875
-0.3017578125
-0.2841796875
-0.2607421875
-0.2255859375
-0.1875
-0.1611328125
-0.1376953125
-0.1171875
-0.0966796875
-0.0791015625
-0.076171875
-0.064453125
-0.0615234375
-0.046875
-0.046875
-0.046875
-0.0439453125
-0.0439453125
-0.029296875
-0.0263671875
-0.0234375
-0.0263671875
-0.0263671875
-0.029296875
-0.0205078125
-0.0146484375
-0.0029296875
0
0.0615234375
0.08203125
0.0908203125
0.0380859375
0
-0.0234375
-0.0732421875
-0.0732421875
-0.0673828125
-0.052734375
-0.046875
-0.03515625
-0.029296875
-0.041015625
-0.1025390625
0.2490234375
0.890625
1.11328125
0.2197265625
-0.15234375
-0.2373046875
-0.205078125
-0.19921875
-0.1904296875
-0.1728515625
-0.1494140625
-0.12890625
-0.10546875
-0.0908203125
-0.0673828125
-0.0498046875
-0.0322265625
-0.0205078125
0
0.0234375
0.052734375
0.08203125
0.1083984375
0.140625
0.1845703125
0.22265625
0.240234375
0.24609375
0.234375
0.1845703125
0.0703125
-0.0556640625
-0.1669921875
-0.251953125
-0.29296875
-0.310546875
-0.3017578125
-0.2783203125
-0.2548828125
-0.228515625
-0.2021484375
-0.17578125
-0.1494140625
-0.1376953125
-0.10546875
-0.09375
-0.0732421875
-0.0673828125
-0.0615234375
-0.0615234375
-0.0498046875
-0.052734375
-0.0439453125
-0.0498046875
-0.0439453125
-0.0380859375
-0.0322265625
-0.0263671875
-0.029296875
-0.0234375
-0.0205078125
-0.01171875
-0.0146484375
-0.0029296875
-0.01171875
0.064453125
0.08203125
0.0908203125
0.03515625
0
-0.029296875
-0.0673828125
-0.0703125
-0.0673828125
-0.046875
-0.046875
-0.0380859375
-0.03515625
-0.029296875
-0.0791015625
0.2783203125
0.8994140625
1.072265625
0.2431640625
-0.1171875
-0.2607421875
-0.2197265625
-0.205078125
-0.1845703125
-0.169921875
-0.1640625
-0.123046875
-0.10546875
-0.0908203125
-0.0615234375
-0.0498046875
-0.0205078125
-0.01171875
0.005859375
0.0234375
0.0556640625
0.0791015625
0.1083984375
0.140625
0.1845703125
0.2080078125
0.228515625
0.2314453125
0.2080078125
0.1669921875
0.076171875
-0.041015625
-0.1640625
-0.2431640625
-0.287109375
-0.2958984375
-0.2958984375
-0.28125
-0.24609375
-0.2197265625
-0.1875
-0.1552734375
-0.12890625
-0.10546875
-0.09375
-0.0732421875
-0.0615234375
-0.0498046875
-0.046875
-0.0498046875
-0.041015625
-0.046875
-0.0439453125
-0.0380859375
-0.0322265625
-0.0322265625
-0.0234375
-0.029296875
-0.0234375
-0.017578125
-0.005859375
-0.005859375
0.0673828125
0.0849609375
0.08203125
0.0263671875
-0.005859375
-0.0322265625
-0.076171875
-0.0732421875
-0.05859375
-0.05859375
-0.046875
-0.029296875
-0.017578125
-0.0322265625
-0.09375
0.31640625
0.990234375
1.0400390625
0.1494140625
-0.158203125
-0.2490234375
-0.2138671875
-0.2021484375
-0.1904296875
-0.1728515625
-0.1435546875
-0.12890625
-0.111328125
-0.087890625
-0.0615234375
-0.052734375
-0.0380859375
-0.0146484375
0.005859375
0.0322265625
0.046875
0.0849609375
0.1142578125
0.1552734375
0.181640625
0.2197265625
0.2431640625
0.234375
0.216796875
0.1640625
0.052734375
-0.076171875
-0.1787109375
-0.2548828125
-0.2900390625
-0.2958984375
-0.2841796875
-0.2724609375
-0.2490234375
-0.2109375
-0.1845703125
-0.1552734375
-0.1259765625
-0.0966796875
-0.0908203125
-0.0732421875
-0.05859375
-0.052734375
-0.0439453125
-0.0439453125
-0.0498046875
-0.0439453125
-0.0498046875
-0.0380859375
-0.03515625
-0.029296875
-0.0263671875
-0.029296875
-0.005859375
0.0205078125
0.0380859375
0.099609375
0
0.005859375
0.087890625
0.017578125
0.0673828125
0.0263671875
-0.10546875
-0.1142578125
-0.10546875
-0.099609375
-0.0732421875
-0.05859375
-0.041015625
-0.046875
-0.01171875
-0.0966796875
0
0.55078125
1.1455078125
0.7236328125
-0.0234375
-0.2431640625
-0.2197265625
-0.1962890625
-0.19921875
-0.1787109375
-0.146484375
-0.1611328125
-0.1259765625
-0.10546875
-0.064453125
-0.0849609375
-0.0439453125
-0.0146484375
0.0087890625
0.0234375
0.0439453125
0.0498046875
0.1435546875
0.123046875
0.140625
0.2021484375
0.2431640625
0.251953125
0.2724609375
0.216796875
0.1376953125
0.0087890625
-0.1171875
-0.19921875
-0.26953125
-0.275390625
-0.310546875
-0.2958984375
-0.2666015625
-0.2548828125
-0.2109375
-0.1787109375
-0.146484375
-0.1171875
-0.09375
-0.05859375
-0.10546875
-0.0732421875
-0.01171875
-0.041015625
-0.0556640625
-0.046875
-0.0556640625
-0.046875
-0.0263671875
-0.0234375
-0.0205078125
-0.029296875
-0.0234375
-0.0146484375
-0.0029296875
-0.0263671875
0
0
0.0703125
0.0849609375
0.08203125
0.017578125
0
-0.0439453125
-0.064453125
-0.05859375
-0.041015625
-0.052734375
-0.0498046875
-0.0380859375
-0.0380859375
-0.0908203125
0.0087890625
0.52734375
1.060546875
0.73828125
-0.005859375
-0.234375
-0.205078125
-0.2109375
-0.193359375
-0.181640625
-0.15234375
-0.146484375
-0.1142578125
-0.09375
-0.0673828125
-0.05859375
-0.052734375
-0.029296875
-0.0029296875
0.0205078125
0.041015625
0.0615234375
0.099609375
0.1318359375
0.1640625
0.1962890625
0.22265625
0.234375
0.2314453125
0.205078125
0.140625
-0.0146484375
-0.1318359375
-0.2080078125
-0.2724609375
-0.2958984375
-0.2958984375
-0.2900390625
-0.26953125
-0.2314453125
-0.216796875
-0.1611328125
-0.15234375
-0.123046875
-0.0966796875
-0.0908203125
-0.09375
-0.0439453125
-0.046875
-0.0615234375
-0.0263671875
-0.0615234375
-0.0498046875
-0.0263671875
-0.0234375
-0.0439453125
-0.0234375
-0.0205078125
-0.0380859375
-0.0234375
0.005859375
0.0146484375
0.0498046875
0.0908203125
0.099609375
0
-0.0029296875
-0.046875
-0.0732421875
-0.0732421875
-0.0556640625
-0.0556640625
-0.0439453125
-0.0439453125
-0.0205078125
-0.08203125
-0.03515625
0.4599609375
1.06640625
0.80859375
0.0498046875
-0.17578125
-0.2578125
-0.19921875
-0.1787109375
-0.1845703125
-0.1669921875
-0.140625
-0.111328125
-0.0966796875
-0.08203125
-0.0556640625
-0.046875
-0.017578125
0
0.0205078125
0.0380859375
0.0732421875
0.08203125
0.111328125
0.146484375
0.1845703125
0.2080078125
0.2314453125
0.22265625
0.1845703125
0.12890625
0.0234375
-0.10546875
-0.1962890625
-0.2607421875
-0.3017578125
-0.3017578125
-0.2724609375
-0.2724609375
-0.228515625
-0.19921875
-0.1611328125
-0.140625
-0.1171875
-0.099609375
-0.087890625
-0.08203125
-0.0703125
-0.0556640625
-0.0380859375
-0.0380859375
-0.05859375
-0.0498046875
-0.0498046875
-0.046875
-0.0322265625
-0.0263671875
-0.03515625
-0.041015625
-0.0380859375
-0.01171875
0.029296875
0.0673828125
0.0908203125
0.0791015625
0.017578125
-0.0234375
-0.0673828125
-0.0908203125
-0.076171875
-0.0615234375
-0.052734375
-0.046875
-0.0322265625
-0.0234375
-0.0732421875
-0.0732421875
0.3896484375
1.0224609375
0.9052734375
0.0673828125
-0.1875
-0.2373046875
-0.19921875
-0.1904296875
-0.17578125
-0.1640625
-0.15234375
-0.1083984375
-0.0732421875
-0.123046875
-0.076171875
-0.0263671875
-0.005859375
-0.0087890625
0.0087890625
0.0146484375
0.1083984375
0.0673828125
0.0322265625
0.1259765625
0.158203125
0.193359375
0.22265625
0.2314453125
0.193359375
0.1318359375
0.029296875
-0.0908203125
-0.1962890625
-0.26953125
-0.3046875
-0.2958984375
-0.2783203125
-0.2578125
-0.234375
-0.19921875
-0.1640625
-0.1259765625
-0.099609375
-0.0908203125
-0.0732421875
-0.05859375
-0.0380859375
-0.041015625
-0.052734375
-0.0439453125
-0.0263671875
-0.01171875
-0.0234375
-0.0263671875
-0.0380859375
-0.0322265625
-0.01171875
-0.017578125
-0.005859375
-0.0146484375
0
0.052734375
0.0703125
0.0908203125
0.0908203125
0.029296875
-0.0029296875
-0.041015625
-0.0673828125
-0.05859375
-0.041015625
-0.052734375
-0.0439453125
-0.0146484375
-0.005859375
-0.0703125
-0.0615234375
0.43359375
1.0576171875
0.8935546875
0.0439453125
-0.2109375
-0.2109375
-0.1787109375
-0.205078125
-0.1787109375
-0.1611328125
-0.123046875
-0.1376953125
-0.10546875
-0.0673828125
-0.0732421875
-0.029296875
0.005859375
-0.029296875
0.0791015625
0.0087890625
0.041015625
0.1142578125
0.1259765625
0.15234375
0.17578125
0.234375
0.181640625
0.19921875
0.19921875
0.1494140625
0.03515625
-0.0849609375
-0.193359375
-0.275390625
-0.3017578125
-0.2958984375
-0.263671875
-0.216796875
-0.2607421875
-0.234375
-0.263671875
-0.169921875
-0.1142578125
-0.0673828125
-0.1201171875
-0.09375
-0.0615234375
-0.0498046875
-0.0615234375
-0.0556640625
-0.0498046875
-0.03515625
-0.0439453125
-0.046875
-0.0087890625
-0.0498046875
-0.0498046875
-0.0439453125
-0.029296875
-0.0146484375
-0.0087890625
0.0556640625
0.0673828125
0.08203125
0.0556640625
0.0205078125
-0.0087890625
-0.0556640625
-0.052734375
-0.0849609375
-0.076171875
-0.052734375
-0.05859375
-0.0703125
-0.046875
-0.0966796875
-0.029296875
0.462890625
1.060546875
0.80859375
-0.005859375
-0.228515625
-0.2373046875
-0.2255859375
-0.19921875
-0.1845703125
-0.1728515625
-0.1435546875
-0.09375
-0.0966796875
-0.1201171875
-0.0791015625
-0.029296875
-0.0146484375
-0.0029296875
0.03515625
0.0380859375
0.046875
0.0703125
0.1259765625
0.1552734375
0.2138671875
0.228515625
0.240234375
0.22265625
0.205078125
0.1376953125
0.0234375
-0.1025390625
-0.2021484375
-0.234375
-0.275390625
-0.3017578125
-0.287109375
-0.2548828125
-0.2578125
-0.17578125
-0.1845703125
-0.1552734375
-0.1171875
-0.087890625
-0.05859375
-0.05859375
-0.05859375
-0.0439453125
-0.0498046875
-0.0498046875
-0.046875
-0.0234375
-0.03515625
-0.0234375
-0.0205078125
-0.0439453125
-0.0234375
0.0087890625
0.05859375
0.1025390625
0.1201171875
0.029296875
-0.0205078125
-0.05859375
-0.076171875
-0.0966796875
-0.0556640625
-0.029296875
-0.0263671875
-0.052734375
-0.005859375
0.0263671875
-0.1201171875
0.22265625
0.884765625
1.060546875
0.298828125
-0.099609375
-0.2666015625
-0.22265625
-0.181640625
-0.1845703125
-0.1552734375
-0.1494140625
-0.1142578125
-0.1083984375
-0.09375
-0.099609375
-0.052734375
-0.029296875
0.0439453125
0.052734375
0.017578125
0.005859375
0.0498046875
0.099609375
0.146484375
0.1845703125
0.205078125
0.2021484375
0.234375
0.1962890625
0.1435546875
0.0439453125
-0.08203125
-0.17578125
-0.2109375
-0.2666015625
-0.2607421875
-0.3310546875
-0.298828125
-0.22265625
-0.205078125
-0.1640625
-0.1552734375
-0.10546875
-0.0791015625
-0.0732421875
-0.08203125
-0.087890625
-0.052734375
-0.046875
-0.0498046875
-0.0791015625
-0.052734375
-0.041015625
-0.0234375
-0.041015625
-0.0380859375
-0.0205078125
-0.03515625
0.0439453125
0.0791015625
0.10546875
0.046875
-0.0029296875
-0.0615234375
-0.09375
-0.0849609375
-0.099609375
-0.0673828125
-0.046875
-0.0263671875
-0.052734375
-0.03515625
-0.1201171875
0.0966796875
0.6767578125
1.1865234375
0.5302734375
-0.0732421875
-0.2373046875
-0.216796875
-0.2109375
-0.2021484375
-0.1669921875
-0.15234375
-0.15234375
-0.1318359375
-0.09375
-0.052734375
-0.0498046875
-0.0615234375
-0.052734375
0.0205078125
-0.0029296875
0.052734375
0.076171875
0.1083984375
0.123046875
0.1962890625
0.240234375
0.2021484375
0.2314453125
0.2255859375
0.169921875
0.076171875
-0.0234375
-0.1435546875
-0.2607421875
-0.2958984375
-0.2900390625
-0.28125
-0.24609375
-0.2607421875
-0.2373046875
-0.2080078125
-0.1435546875
-0.1142578125
-0.1083984375
-0.09375
-0.0849609375
-0.0673828125
-0.0380859375
-0.052734375
-0.0146484375
-0.041015625
-0.046875
-0.0673828125
0.0322265625
-0.0498046875
-0.0703125
-0.041015625
-0.0029296875
-0.0029296875
0.0791015625
0.087890625
0.064453125
0.0498046875
-0.017578125
0.0029296875
-0.087890625
-0.1025390625
-0.099609375
-0.0439453125
-0.0703125
-0.064453125
-0.005859375
-0.0234375
-0.1025390625
-0.0380859375
0.5537109375
1.142578125
0.673828125
-0.005859375
-0.2607421875
-0.2314453125
-0.1669921875
-0.1640625
-0.205078125
-0.1904296875
-0.140625
-0.1201171875
-0.10546875
-0.03515625
-0.08203125
-0.05859375
-0.0439453125
0.01171875
0.005859375
0.046875
0.0703125
0.08203125
0.1142578125
0.169921875
0.22265625
0.234375
0.2255859375
0.2314453125
0.2021484375
0.123046875
-0.01171875
-0.1376953125
-0.2255859375
-0.2548828125
-0.3046875
-0.2958984375
-0.2490234375
-0.22265625
-0.19921875
-0.1435546875
-0.2109375
-0.169921875
-0.134765625
-0.08203125
-0.087890625
-0.0703125
-0.0380859375
-0.087890625
-0.0849609375
-0.041015625
-0.029296875
-0.0615234375
-0.03515625
-0.0498046875
-0.046875
-0.0322265625
-0.0263671875
-0.0263671875
-0.017578125
0
0.0263671875
0.0263671875
0.0703125
0.09375
0.052734375
0.0439453125
0.0380859375
-0.099609375
-0.10546875
-0.052734375
-0.052734375
-0.052734375
-0.052734375
-0.041015625
-0.0234375
-0.052734375
-0.05859375
0.3427734375
0.9814453125
0.9345703125
0.064453125
-0.1787109375
-0.2431640625
-0.2138671875
-0.2021484375
-0.1787109375
-0.1875
-0.1376953125
-0.1142578125
-0.087890625
-0.0732421875
-0.0703125
-0.029296875
-0.0263671875
-0.017578125
0.0322265625
0.03515625
0.0556640625
0.08203125
0.1025390625
0.1494140625
0.181640625
0.22265625
0.251953125
0.2373046875
0.205078125
0.1552734375
0.03515625
-0.09375
-0.1904296875
-0.2666015625
-0.28125
-0.2958984375
-0.275390625
-0.2724609375
-0.2314453125
-0.2109375
-0.181640625
-0.158203125
-0.10546875
-0.1318359375
-0.0966796875
-0.0849609375
-0.052734375
-0.0556640625
-0.029296875
-0.0703125
-0.0732421875
-0.046875
-0.052734375
-0.052734375
-0.0205078125
-0.046875
-0.017578125
-0.0380859375
-0.0146484375
-0.0234375
-0.029296875
0.0556640625
0.0673828125
0.087890625
0.0556640625
-0.005859375
-0.0205078125
-0.0615234375
-0.0703125
-0.0556640625
-0.041015625
-0.0673828125
-0.046875
-0.0322265625
-0.0234375
-0.0615234375
0.1611328125
0.69140625
1.11328125
0.486328125
-0.046875
-0.24609375
-0.2373046875
-0.1904296875
-0.1787109375
-0.169921875
-0.1435546875
-0.140625
-0.1259765625
-0.0732421875
-0.05859375
-0.0556640625
-0.01171875
-0.029296875
0.0322265625
-0.005859375
0.0556640625
0.0732421875
0.09375
0.140625
0.1640625
0.2080078125
0.2373046875
0.2109375
0.1787109375
0.169921875
0.0849609375
-0.0498046875
-0.15234375
-0.2109375
-0.26953125
-0.2548828125
-0.2783203125
-0.275390625
-0.193359375
-0.205078125
-0.1787109375
-0.1552734375
-0.1083984375
-0.099609375
-0.0703125
-0.0439453125
-0.0703125
-0.0322265625
-0.046875
-0.041015625
-0.0615234375
-0.03515625
-0.041015625
-0.029296875
-0.0439453125
-0.0380859375
-0.01171875
-0.029296875
-0.0146484375
-0.01171875
-0.01171875
0.064453125
0.0791015625
0.1025390625
0.0849609375
-0.0263671875
0.0146484375
-0.0703125
-0.09375
-0.0849609375
-0.0615234375
-0.03515625
-0.01171875
-0.046875
-0.029296875
-0.0849609375
0.0556640625
0.62109375
1.154296875
0.6533203125
-0.03515625
-0.251953125
-0.2314453125
-0.228515625
-0.2021484375
-0.1787109375
-0.15234375
-0.146484375
-0.1201171875
-0.087890625
-0.08203125
-0.0615234375
-0.0673828125
-0.046875
-0.0087890625
0.0029296875
0.03515625
0.05859375
0.0849609375
0.1083984375
0.169921875
0.193359375
0.2021484375
0.2373046875
0.181640625
0.169921875
0.0908203125
-0.03515625
-0.1611328125
-0.22265625
-0.28125
-0.3046875
-0.2841796875
-0.275390625
-0.26953125
-0.2490234375
-0.2080078125
-0.1669921875
-0.123046875
-0.111328125
-0.0732421875
-0.0732421875
-0.0556640625
-0.064453125
-0.0556640625
-0.0439453125
-0.0439453125
-0.0380859375
-0.0234375
-0.041015625
-0.046875
-0.0263671875
-0.029296875
-0.0439453125
-0.0234375
-0.029296875
-0.0087890625
0
0.0380859375
0.0703125
0.0908203125
0.0703125
-0.0029296875
-0.0263671875
-0.0615234375
-0.0673828125
-0.0703125
-0.076171875
-0.0732421875
-0.05859375
-0.0380859375
-0.017578125
-0.0791015625
0.01171875
0.5390625
1.1923828125
0.7705078125
-0.0380859375
-0.240234375
-0.2490234375
-0.2109375
-0.2314453125
-0.193359375
-0.1845703125
-0.1494140625
-0.1201171875
-0.1171875
-0.08203125
-0.0791015625
-0.0615234375
-0.03515625
0
0.0146484375
0.01171875
0.0380859375
0.0849609375
0.1435546875
0.1435546875
0.1904296875
0.2197265625
0.251953125
0.2431640625
0.2080078125
0.1259765625
-0.0029296875
-0.1494140625
-0.2373046875
-0.3046875
-0.31640625
-0.2841796875
-0.2783203125
-0.228515625
-0.234375
-0.22265625
-0.19921875
-0.1494140625
-0.1318359375
-0.099609375
-0.076171875
-0.0556640625
-0.0615234375
-0.046875
-0.0380859375
-0.064453125
-0.0322265625
-0.046875
-0.0234375
-0.029296875
-0.0234375
-0.052734375
-0.029296875
-0.01171875
-0.0146484375
-0.041015625
-0.017578125
-0.005859375
-0.0234375
0.01171875
-0.005859375
0.076171875
0.111328125
0.1083984375
0.0205078125
-0.03515625
-0.03515625
-0.0703125
-0.0673828125
-0.046875
-0.0439453125
-0.0322265625
-0.0029296875
-0.0234375
-0.0556640625
-0.099609375
0.2080078125
0.8203125
1.0986328125
0.2900390625
-0.1318359375
-0.2255859375
-0.181640625
-0.1669921875
-0.2021484375
-0.1787109375
-0.140625
-0.134765625
-0.134765625
-0.0966796875
-0.046875
-0.05859375
-0.0556640625
0
0.0205078125
0.0146484375
0.0615234375
0.076171875
0.0849609375
0.12890625
0.1875
0.2197265625
0.2431640625
0.29296875
0.2666015625
0.1171875
0.08203125
-0.0263671875
-0.158203125
-0.2490234375
-0.263671875
-0.28125
-0.2958984375
-0.2666015625
-0.298828125
-0.2431640625
-0.1904296875
-0.146484375
-0.1083984375
-0.123046875
-0.1494140625
-0.0849609375
-0.0673828125
-0.052734375
-0.0380859375
-0.03515625
-0.0498046875
-0.046875
-0.0263671875
-0.0615234375
-0.0703125
-0.0380859375
0.0146484375
-0.029296875
-0.03515625
-0.029296875
0.0439453125
-0.046875
-0.0380859375
-0.0234375
-0.005859375
0.0087890625
-0.0146484375
-0.0146484375
0.017578125
0.0263671875
0.0205078125
0.0703125
0.09375
0.0703125
0.0439453125
-0.0234375
-0.041015625
-0.0791015625
-0.0615234375
-0.05859375
-0.0615234375
-0.03515625
-0.005859375
-0.03515625
-0.1025390625
0.0732421875
0.5830078125
1.1484375
0.5830078125
-0.03515625
-0.234375
-0.2080078125
-0.1962890625
-0.1669921875
-0.1787109375
-0.1552734375
-0.1376953125
-0.1083984375
-0.1171875
-0.0380859375
-0.076171875
0
-0.0380859375
-0.0234375
0.0322265625
0.0703125
0.0498046875
0.1025390625
0.158203125
0.1435546875
0.2255859375
0.2255859375
0.240234375
0.24609375
0.22265625
0.1787109375
0.0322265625
-0.12890625
-0.234375
-0.2841796875
-0.310546875
-0.3076171875
-0.2783203125
-0.2841796875
-0.2724609375
-0.1787109375
-0.205078125
-0.17578125
-0.12890625
-0.1083984375
-0.09375
-0.0791015625
-0.076171875
-0.05859375
-0.0439453125
-0.046875
-0.029296875
-0.0673828125
-0.052734375
-0.0234375
-0.05859375
-0.041015625
-0.041015625
-0.03515625
-0.017578125
-0.03515625
0.017578125
-0.01171875
-0.052734375
-0.017578125
-0.0029296875
0.08203125
0.076171875
0.1318359375
0.0966796875
-0.041015625
-0.01171875
-0.0849609375
-0.0966796875
-0.0908203125
-0.0380859375
-0.0703125
-0.0498046875
-0.0498046875
-0.046875
-0.1083984375
0.2490234375
0.7939453125
1.072265625
0.216796875
-0.10546875
-0.2109375
-0.216796875
-0.240234375
-0.1875
-0.1669921875
-0.146484375
-0.1259765625
-0.09375
-0.10546875
-0.0703125
-0.0439453125
-0.0234375
0.0234375
0.0205078125
0.0205078125
0.0556640625
0.03515625
0.0966796875
0.15234375
0.1875
0.2490234375
0.2607421875
0.2109375
0.2109375
0.1845703125
0.0908203125
-0.05859375
-0.140625
-0.234375
-0.2783203125
-0.3310546875
-0.298828125
-0.2490234375
-0.24609375
-0.240234375
-0.2080078125
-0.1552734375
-0.1318359375
-0.1025390625
-0.09375
-0.064453125
-0.05859375
-0.03515625
-0.05859375
-0.03515625
-0.0439453125
-0.0380859375
-0.03515625
-0.0234375
-0.052734375
-0.0322265625
-0.017578125
-0.01171875
-0.0146484375
-0.01171875
0.0556640625
0.123046875
0.1142578125
0.052734375
0.029296875
0
-0.111328125
-0.0732421875
-0.064453125
-0.0966796875
-0.0732421875
-0.052734375
-0.0263671875
0
-0.0966796875
0.1376953125
0.73828125
1.142578125
0.36328125
-0.0966796875
-0.2314453125
-0.2138671875
-0.2080078125
-0.1669921875
-0.1669921875
-0.1669921875
-0.1142578125
-0.1171875
-0.041015625
-0.064453125
-0.0556640625
-0.0380859375
-0.0029296875
0.03515625
0.0205078125
0.041015625
0.087890625
0.099609375
0.111328125
0.17578125
0.1875
0.251953125
0.2138671875
0.1904296875
0.17578125
0.0673828125
-0.0439453125
-0.1494140625
-0.298828125
-0.2490234375
-0.3193359375
-0.3046875
-0.251953125
-0.1962890625
-0.2724609375
-0.1875
-0.1435546875
-0.10546875
-0.0439453125
-0.0966796875
-0.08203125
-0.0615234375
-0.05859375
-0.0732421875
-0.046875
-0.029296875
-0.0791015625
-0.0146484375
-0.052734375
-0.041015625
-0.0556640625
-0.0029296875
-0.064453125
-0.01171875
0.05859375
0.0908203125
0.1025390625
0.087890625
-0.0029296875
-0.0380859375
-0.076171875
-0.1025390625
-0.076171875
-0.0849609375
-0.0703125
-0.0556640625
-0.0556640625
-0.0615234375
-0.099609375
0.076171875
0.638671875
1.1923828125
0.55078125
-0.052734375
-0.240234375
-0.2021484375
-0.2197265625
-0.1875
-0.193359375
-0.1494140625
-0.1376953125
-0.1142578125
-0.0732421875
-0.076171875
-0.0498046875
0
-0.0205078125
0.0263671875
0.087890625
0.1142578125
0.0791015625
0.1318359375
0.19921875
0.2080078125
0.2578125
0.240234375
0.2578125
0.2138671875
0.1611328125
0.123046875
-0.0146484375
-0.1787109375
-0.2431640625
-0.2900390625
-0.3076171875
-0.2958984375
-0.31640625
-0.2900390625
-0.263671875
-0.205078125
-0.1875
-0.1787109375
-0.12890625
-0.1318359375
-0.09375
-0.10546875
-0.0703125
-0.12890625
-0.0732421875
-0.0908203125
-0.0498046875
-0.05859375
-0.0791015625
-0.046875
-0.029296875
0.041015625
0.0556640625
0.064453125
0.111328125
-0.0029296875
-0.0205078125
-0.0439453125
-0.12890625
-0.099609375
-0.09375
-0.064453125
-0.05859375
-0.064453125
-0.041015625
-0.09375
-0.0439453125
0.509765625
1.1162109375
0.78515625
-0.03515625
-0.24609375
-0.2109375
-0.251953125
-0.2109375
-0.181640625
-0.1552734375
-0.1259765625
-0.0966796875
-0.0673828125
-0.0263671875
-0.0673828125
-0.052734375
-0.0439453125
0.017578125
0.029296875
0.0673828125
0.0732421875
0.09375
0.1728515625
0.1611328125
0.1669921875
0.234375
0.2255859375
0.1962890625
0.1904296875
0.1201171875
-0.0234375
-0.1435546875
-0.22265625
-0.2578125
-0.287109375
-0.2841796875
-0.2490234375
-0.22265625
-0.19921875
-0.1669921875
-0.1171875
-0.111328125
-0.09375
-0.08203125
-0.0615234375
-0.064453125
-0.0439453125
-0.064453125
-0.0498046875
-0.01171875
-0.0791015625
-0.0673828125
-0.046875
-0.0322265625
0
-0.0146484375
-0.046875
0.064453125
0.1142578125
0.087890625
0.03515625
-0.029296875
-0.0439453125
-0.10546875
-0.1142578125
-0.0673828125
-0.0908203125
-0.09375
-0.064453125
-0.046875
-0.0732421875
-0.111328125
0.322265625
0.9697265625
0.9638671875
0.076171875
-0.1728515625
-0.22265625
-0.1787109375
-0.1787109375
-0.1728515625
-0.15234375
-0.1201171875
-0.0966796875
-0.0791015625
-0.12890625
-0.0615234375
-0.0146484375
-0.01171875
-0.01171875
0.03515625
0.0498046875
0.0615234375
0.0908203125
0.140625
0.1552734375
0.158203125
0.2138671875
0.2138671875
0.2197265625
0.193359375
0.12890625
0.0234375
-0.0849609375
-0.1904296875
-0.251953125
-0.251953125
-0.2490234375
-0.2666015625
-0.234375
-0.1962890625
-0.1875
-0.1435546875
-0.1201171875
-0.1025390625
-0.0966796875
-0.046875
-0.0849609375
-0.087890625
-0.0732421875
-0.0322265625
-0.0263671875
-0.0673828125
-0.08203125
-0.052734375
-0.052734375
-0.0146484375
-0.0380859375
-0.0439453125
-0.0234375
-0.0439453125
-0.0615234375
-0.05859375
-0.017578125
0.0263671875
0.0556640625
0.0908203125
0.0791015625
0.087890625
0.041015625
-0.017578125
-0.029296875
-0.09375
-0.1201171875
-0.0966796875
-0.099609375
-0.064453125
-0.041015625
-0.046875
-0.0732421875
-0.076171875
0.3779296875
1.013671875
0.9169921875
0.064453125
-0.19921875
-0.2255859375
-0.1669921875
-0.2109375
-0.1962890625
-0.10546875
-0.205078125
-0.1640625
-0.1201171875
-0.052734375
-0.052734375
-0.052734375
-0.0029296875
0.0380859375
0.029296875
0.0615234375
0.0703125
0.123046875
0.10546875
0.1201171875
0.1552734375
0.169921875
0.205078125
0.2021484375
0.216796875
0.1494140625
-0.0146484375
-0.09375
-0.193359375
-0.228515625
-0.28125
-0.29296875
-0.2724609375
-0.2255859375
-0.216796875
-0.17578125
-0.1318359375
-0.1142578125
-0.123046875
-0.08203125
-0.08203125
-0.0615234375
-0.0615234375
-0.0673828125
-0.05859375
-0.0439453125
-0.041015625
-0.064453125
-0.046875
-0.0205078125
-0.05859375
-0.01171875
-0.0029296875
-0.0234375
-0.0556640625
-0.0234375
-0.0263671875
0.0673828125
0.1201171875
0.0908203125
0.0498046875
0.0205078125
-0.046875
-0.087890625
-0.0146484375
-0.0849609375
-0.052734375
-0.076171875
-0.087890625
-0.046875
-0.0439453125
-0.0849609375
0.2783203125
0.97265625
0.9638671875
0.15234375
-0.1259765625
-0.2255859375
-0.19921875
-0.1875
-0.169921875
-0.1376953125
-0.158203125
-0.1259765625
-0.1142578125
-0.0205078125
-0.064453125
-0.0732421875
-0.0029296875
-0.0556640625
0.029296875
0.1025390625
0.0322265625
0.076171875
0.10546875
0.0966796875
0.1611328125
0.1845703125
0.234375
0.15234375
0.1875
0.12890625
0.05859375
-0.0703125
-0.19921875
-0.24609375
-0.2724609375
-0.2607421875
-0.24609375
-0.2109375
-0.22265625
-0.2255859375
-0.1083984375
-0.1171875
-0.0791015625
-0.076171875
-0.0966796875
-0.076171875
-0.0439453125
-0.046875
-0.0615234375
-0.0556640625
-0.0439453125
-0.046875
-0.0380859375
-0.0439453125
-0.0234375
-0.017578125
0.01171875
-0.0322265625
-0.0380859375
-0.01171875
-0.0146484375
-0.0234375
-0.017578125
0.076171875
0.0380859375
0.0732421875
0.1552734375
0.0791015625
0.0029296875
-0.0263671875
-0.046875
-0.140625
-0.0849609375
-0.1025390625
-0.0556640625
-0.0263671875
-0.052734375
-0.0234375
-0.1611328125
0.228515625
0.8642578125
1.119140625
0.1962890625
-0.1435546875
-0.2490234375
-0.234375
-0.1904296875
-0.193359375
-0.1142578125
-0.17578125
-0.1318359375
-0.1435546875
-0.1083984375
-0.0849609375
-0.0205078125
0.0263671875
-0.01171875
-0.0380859375
0.0087890625
0.0908203125
0.0498046875
0.1201171875
0.1171875
0.15234375
0.169921875
0.2080078125
0.2138671875
0.1787109375
0.146484375
0.0498046875
-0.0380859375
-0.158203125
-0.2548828125
-0.240234375
-0.2958984375
-0.287109375
-0.26953125
-0.2255859375
-0.181640625
-0.146484375
-0.10546875
-0.123046875
-0.0849609375
-0.08203125
-0.0556640625
-0.064453125
-0.0556640625
-0.0732421875
-0.05859375
-0.017578125
-0.05859375
-0.0703125
0.0029296875
-0.017578125
-0.0615234375
-0.0556640625
-0.0087890625
-0.076171875
0.0029296875
0.005859375
-0.0498046875
0
0.0498046875
0.0732421875
0.140625
0.076171875
0.029296875
-0.0205078125
-0.0732421875
-0.1142578125
-0.05859375
-0.0498046875
-0.0966796875
-0.052734375
-0.029296875
-0.0087890625
-0.1318359375
0.1728515625
0.7705078125
1.119140625
0.31640625
-0.1171875
-0.2490234375
-0.19921875
-0.15234375
-0.2080078125
-0.1669921875
-0.15234375
-0.1435546875
-0.1171875
-0.087890625
-0.05859375
-0.0322265625
-0.0234375
0
0.01171875
0.03515625
0.052734375
0.087890625
0.111328125
0.146484375
0.1640625
0.2080078125
0.2138671875
0.2314453125
0.2080078125
0.1787109375
0.0966796875
-0.041015625
-0.15234375
-0.2197265625
-0.28125
-0.3017578125
-0.2783203125
-0.2607421875
-0.2255859375
-0.2021484375
-0.1728515625
-0.1318359375
-0.099609375
-0.09375
-0.0673828125
-0.0615234375
-0.0498046875
-0.0615234375
-0.05859375
-0.076171875
-0.0849609375
-0.0439453125
-0.046875
-0.1171875
-0.0439453125
-0.05859375
-0.052734375
-0.0263671875
-0.0263671875
-0.017578125
-0.0556640625
-0.0498046875
-0.029296875
0.0087890625
0.09375
0.1142578125
0.0908203125
0.0146484375
-0.0146484375
-0.0322265625
-0.09375
-0.123046875
-0.0849609375
-0.046875
-0.05859375
-0.0205078125
-0.029296875
-0.08203125
0.08203125
0.5859375
1.11328125
0.5390625
-0.05859375
-0.228515625
-0.205078125
-0.181640625
-0.1494140625
-0.169921875
-0.1728515625
-0.1787109375
-0.1025390625
